# col1 col2
# An Atlas of Galaxy Spectral Energy Distributions from the Ultraviolet to the Mid-Infrared
# Brown et al. (2014)
# http://dx.doi.org/10.5072/03/529D3551F0117
# 
# Column 1 : Restframe Wavelength (Angstrom)
# Column 2 : Flux per unit wavelength (ergs/s/cm^2/Angstrom)
# Column 3 : Observed wavelength (Angstrom)
# Column 4 : Source (0 = model, 1 = Optical Spectrum, 2 = Akari, 3 = Spitzer IRS)
# 
100.06 2.7598e-24
101.92 4.0438e-24
104.05 5.3913e-24
105.99 7.3385e-24
107.96 1.0128e-23
109.96 1.6048e-23
114.09 2.7054e-23
118.1 4.2565e-23
121.13 1.6554e-22
125.1 2.4251e-22
127.13 2.8552e-22
128.01 3.1375e-22
130.99 3.9215e-22
131.9 4.7578e-22
134.04 5.4615e-22
136.85 7.6064e-22
140.04 9.2477e-22
142.97 2.5698e-21
146.98 6.7253e-21
151.09 8.2134e-21
154.97 1.0101e-20
158.94 1.2364e-20
161.9 1.4257e-20
166.05 1.7371e-20
169.92 2.0637e-20
173.08 2.3524e-20
177.11 2.7626e-20
179.99 3.113e-20
182.07 3.3658e-20
185.89 3.9076e-20
191.09 4.6738e-20
194.2 5.2183e-20
197.81 5.9478e-20
201.95 6.7946e-20
205.23 7.4647e-20
210.01 8.3137e-20
215.9 1.0316e-19
219.91 1.157e-19
222.97 1.2393e-19
227.11 1.3899e-19
229.74 2.2074e-19
234.02 3.9598e-19
240.02 5.326e-19
246.18 5.5095e-19
251.91 6.3073e-19
257.18 5.6572e-19
260.16 6.768e-19
263.78 7.4352e-19
269.31 7.8711e-19
274.31 8.2947e-19
278.77 8.7215e-19
283.95 9.1696e-19
289.9 9.2699e-19
295.97 9.9722e-19
300.78 1.027e-18
307.78 1.1021e-18
317.87 1.2155e-18
328.28 1.304e-18
338.26 1.383e-18
347.73 1.4567e-18
356.65 1.5309e-18
365.8 1.6089e-18
375.18 1.6714e-18
384.81 1.6851e-18
394.68 1.7996e-18
404.8 1.8737e-18
414.23 1.9242e-18
421.93 1.9538e-18
429.78 1.9839e-18
440.8 2.0512e-18
451.07 2.0822e-18
460.52 2.109e-18
470.16 2.141e-18
480.0 2.1885e-18
490.06 2.1912e-18
500.32 2.2397e-18
506.11 2.2486e-18
511.97 2.3968e-18
520.29 2.4168e-18
529.96 2.4254e-18
539.82 2.3951e-18
549.85 2.4538e-18
560.07 2.5489e-18
570.49 2.6234e-18
579.76 2.6027e-18
590.53 2.6848e-18
600.13 2.6635e-18
609.88 2.5176e-18
619.79 2.8544e-18
629.86 2.8776e-18
640.1 2.9144e-18
650.5 2.9857e-18
658.03 3.0109e-18
665.65 3.0926e-18
674.91 3.1109e-18
684.3 3.0509e-18
695.42 3.3335e-18
705.09 3.2243e-18
716.55 3.5066e-18
726.52 3.5597e-18
734.93 3.6141e-18
745.15 3.7889e-18
755.52 3.8906e-18
764.27 3.8423e-18
774.9 4.1695e-18
785.68 4.2911e-18
794.78 4.417e-18
805.83 4.5456e-18
815.16 4.636e-18
824.6 4.9055e-18
834.15 4.3174e-18
845.76 5.066e-18
855.55 5.1664e-18
865.46 5.4289e-18
875.48 5.7046e-18
885.62 6.0497e-18
895.87 6.2984e-18
904.16 6.3362e-18
914.63 9.1479e-18
925.22 5.27e-17
935.93 1.1516e-16
944.59 2.2124e-16
955.53 3.1574e-16
964.37 3.6216e-16
975.54 6.1568e-17
984.57 3.1983e-16
995.97 3.3912e-16
1005.18 4.9193e-16
1014.48 4.693e-16
1023.87 1.9815e-16
1035.73 3.3221e-16
1045.31 6.4557e-16
1054.98 6.419e-16
1064.74 5.1403e-16
1074.6 6.1447e-16
1084.54 4.898e-16
1094.57 6.4941e-16
1104.7 6.6378e-16
1114.92 6.6301e-16
1125.24 6.1803e-16
1135.65 7.6824e-16
1146.16 6.982e-16
1154.1 7.5437e-16
1164.78 7.8715e-16
1175.56 5.6823e-16
1183.71 7.3303e-16
1194.66 4.6836e-16
1205.72 3.42e-16
1214.07 2.1808e-16
1225.31 4.582e-16
1233.8 7.3899e-16
1245.22 8.8322e-16
1253.85 8.8438e-16
1265.45 7.2288e-16
1274.22 1.0731e-15
1286.01 1.1913e-15
1294.93 9.8991e-16
1303.9 9.0188e-16
1315.97 1.1982e-15
1325.09 1.1997e-15
1334.27 1.0583e-15
1343.52 1.3067e-15
1355.96 1.2634e-15
1365.35 1.1274e-15
1374.82 1.232e-15
1384.35 1.2535e-15
1393.94 1.1766e-15
1403.61 1.2027e-15
1416.59 1.1871e-15
1426.41 1.2503e-15
1436.3 1.2092e-15
1442.93 1.3067e-15
1446.26 1.3709e-15
1456.28 1.3351e-15
1466.38 1.2274e-15
1476.54 1.2091e-15
1483.36 1.2651e-15
1493.64 1.3201e-15
1503.99 1.2855e-15
1510.93 1.1501e-15
1517.91 1.2485e-15
1524.91 1.1535e-15
1535.48 1.0127e-15
1546.13 1.1994e-15
1553.26 1.1081e-15
1564.03 1.0915e-15
1574.87 1.1789e-15
1585.79 1.2616e-15
1596.78 1.3164e-15
1604.15 1.2647e-15
1615.27 1.2689e-15
1626.47 1.1827e-15
1633.97 1.2632e-15
1645.3 1.2999e-15
1656.7 1.165e-15
1664.35 1.312e-15
1672.03 1.0853e-15
1675.89 1.3072e-15
1683.62 1.4026e-15
1695.29 1.3102e-15
1703.12 1.2558e-15
1714.93 1.2143e-15
1726.81 1.207e-15
1734.78 1.2951e-15
1746.81 1.2755e-15
1754.87 1.3844e-15
1762.97 1.2355e-15
1775.19 1.3159e-15
1783.39 1.3299e-15
1795.75 1.4393e-15
1804.04 1.4117e-15
1816.54 1.3492e-15
1824.93 1.3479e-15
1833.35 1.3038e-15
1846.06 1.2066e-15
1854.58 1.2448e-15
1863.14 1.2784e-15
1876.05 1.3583e-15
1884.71 1.2929e-15
1893.41 1.2738e-15
1906.54 1.2984e-15
1915.34 1.2941e-15
1924.18 1.2868e-15
1933.06 1.2943e-15
1946.46 1.3625e-15
1955.44 1.3088e-15
1969.0 1.4098e-15
1978.09 1.4278e-15
1982.65 1.3754e-15
1996.39 1.3357e-15
2005.6 1.3559e-15
2014.86 1.3145e-15
2024.16 1.356e-15
2033.5 1.3328e-15
2042.89 1.3844e-15
2057.05 1.2958e-15
2066.55 1.3063e-15
2076.09 1.411e-15
2085.67 1.429e-15
2095.29 1.3693e-15
2104.97 1.3614e-15
2114.68 1.3756e-15
2124.44 1.3963e-15
2134.25 1.2807e-15
2144.1 1.355e-15
2154.0 1.3912e-15
2163.94 1.3362e-15
2173.93 1.3315e-15
2183.96 1.3299e-15
2194.04 1.3972e-15
2204.17 1.3544e-15
2214.35 1.2799e-15
2224.57 1.2579e-15
2234.83 1.3586e-15
2245.15 1.2868e-15
2255.51 1.2393e-15
2265.92 1.267e-15
2276.38 1.3133e-15
2286.89 1.3613e-15
2297.45 1.2958e-15
2302.74 1.2997e-15
2313.37 1.2544e-15
2324.05 1.0472e-15
2334.78 1.1876e-15
2345.55 1.1357e-15
2356.38 1.2556e-15
2367.26 1.1468e-15
2372.71 1.1961e-15
2383.66 1.095e-15
2394.67 1.1831e-15
2405.72 1.1472e-15
2416.83 1.181e-15
2422.4 1.2664e-15
2433.58 1.2308e-15
2444.81 1.3056e-15
2456.1 1.2895e-15
2467.43 1.2855e-15
2473.12 1.2456e-15
2484.54 1.2677e-15
2496.0 1.1985e-15
2507.52 1.3592e-15
2513.3 1.2039e-15
2519.1 1.23e-15
2524.91 1.1919e-15
2536.56 1.2186e-15
2542.41 1.2139e-15
2554.14 1.3177e-15
2565.93 1.2837e-15
2577.78 1.3618e-15
2583.72 1.3504e-15
2595.65 1.3277e-15
2607.63 1.2935e-15
2613.64 1.2767e-15
2625.7 1.3513e-15
2637.82 1.4171e-15
2643.9 1.555e-15
2656.11 1.6158e-15
2662.23 1.4545e-15
2674.52 1.5219e-15
2686.86 1.5454e-15
2693.05 1.4601e-15
2705.49 1.5242e-15
2717.97 1.4346e-15
2724.24 1.4193e-15
2736.81 1.4988e-15
2743.12 1.3124e-15
2755.78 1.3575e-15
2762.14 1.4226e-15
2774.89 1.4852e-15
2787.69 1.3914e-15
2794.12 1.1164e-15
2807.02 1.2009e-15
2813.49 1.4888e-15
2826.48 1.5868e-15
2832.99 1.5412e-15
2846.07 1.481e-15
2852.63 1.4058e-15
2865.8 1.5798e-15
2872.4 1.6217e-15
2885.66 1.6094e-15
2892.31 1.6331e-15
2912.36 1.8116e-15
2932.55 1.7383e-15
2952.88 1.7187e-15
2973.34 1.7549e-15
2987.07 1.766e-15
3007.77 1.795e-15
3028.62 1.8119e-15
3049.62 1.8333e-15
3070.76 1.8635e-15
3092.04 1.8768e-15
3113.47 1.9254e-15
3127.84 1.8935e-15
3149.53 1.9071e-15
3171.36 1.9476e-15
3193.34 1.8519e-15
3208.08 1.9292e-15
3230.32 1.8386e-15
3252.71 2.0213e-15
3267.72 2.1252e-15
3290.37 2.121e-15
3313.18 2.0974e-15
3320.82 2.0705e-15
3328.47 2.1255e-15
3336.15 2.1569e-15
3343.84 2.057e-15
3351.55 2.0971e-15
3359.27 2.133e-15
3367.02 2.0912e-15
3374.78 1.8783e-15
3382.56 1.9777e-15
3390.36 2.1605e-15
3398.17 2.1426e-15
3406.0 2.1054e-15
3413.86 2.1073e-15
3421.73 2.1985e-15
3429.61 2.1653e-15
3437.52 2.1873e-15
3445.44 1.898e-15
3453.39 2.232e-15
3461.35 2.0327e-15
3469.33 2.11e-15
3477.32 2.0056e-15
3485.34 2.0951e-15
3493.38 2.0472e-15
3501.43 2.114e-15
3509.5 2.1432e-15
3517.59 2.0231e-15
3525.7 2.0748e-15
3533.83 2.223e-15
3541.97 2.2903e-15
3550.14 2.2953e-15
3558.32 2.2172e-15
3566.52 2.2738e-15
3574.75 1.9893e-15
3582.99 1.9709e-15
3591.25 1.8994e-15
3599.53 2.2365e-15
3607.82 2.0918e-15
3616.14 2.1354e-15
3624.48 2.1749e-15
3632.83 2.3899e-15
3641.21 2.3461e-15
3649.6 2.1892e-15
3651.3 2.1574e-15
3653.98 1.7694e-15
3656.66 1.6785e-15
3659.33 2.5743e-15
3662.01 2.3083e-15
3664.69 1.6605e-15
3667.36 2.6119e-15
3670.04 1.5383e-15
3672.72 1.5218e-15
3675.39 2.4262e-15
3678.07 1.9847e-15
3680.75 2.1909e-15
3683.42 2.0692e-15
3686.1 1.796e-15
3688.77 1.8071e-15
3691.45 1.5619e-15
3694.13 1.6675e-15
3696.8 2.1309e-15
3699.48 2.362e-15
3702.16 1.9901e-15
3704.83 2.3072e-15
3707.51 1.8223e-15
3710.19 1.6127e-15
3712.86 1.647e-15
3715.54 2.318e-15
3718.22 2.4657e-15
3720.89 2.2566e-15
3723.57 5.4022e-15
3726.25 6.7913e-15
3728.92 7.7306e-15
3731.6 6.2347e-15
3734.28 3.5675e-15
3736.95 2.4606e-15
3739.63 1.96e-15
3742.31 2.5976e-15
3744.98 2.1957e-15
3747.66 1.5999e-15
3750.34 1.9584e-15
3753.01 2.4769e-15
3755.69 2.5293e-15
3758.37 2.6456e-15
3761.04 2.1219e-15
3763.72 2.3968e-15
3766.4 1.3684e-15
3769.07 1.9574e-15
3771.75 2.2607e-15
3774.42 2.5121e-15
3777.1 2.6904e-15
3779.78 2.831e-15
3782.45 2.8864e-15
3785.13 2.8945e-15
3787.81 3.0549e-15
3790.48 3.0742e-15
3793.16 2.9873e-15
3795.84 2.5543e-15
3798.51 2.2075e-15
3801.19 2.535e-15
3803.87 2.5258e-15
3806.54 2.3492e-15
3809.22 2.8496e-15
3811.9 2.9746e-15
3814.57 2.7441e-15
3817.25 3.0321e-15
3819.93 2.6006e-15
3822.6 2.587e-15
3825.28 2.5924e-15
3827.96 2.2387e-15
3830.63 1.8067e-15
3833.31 1.914e-15
3835.99 1.6551e-15
3838.66 1.62e-15
3841.34 1.7857e-15
3844.02 2.5739e-15
3846.69 2.5245e-15
3849.37 2.684e-15
3852.05 2.8295e-15
3854.72 2.943e-15
3857.4 3.1088e-15
3860.07 3.2944e-15
3862.75 2.9552e-15
3865.43 3.174e-15
3868.1 3.2405e-15
3870.78 3.393e-15
3873.46 3.4218e-15
3876.13 2.88e-15
3878.81 2.7066e-15
3881.49 2.7936e-15
3884.16 2.3961e-15
3886.84 2.2856e-15
3889.52 2.7112e-15
3892.19 2.9821e-15
3894.87 2.8944e-15
3897.55 2.9673e-15
3900.22 2.8287e-15
3902.9 3.1937e-15
3905.58 2.9602e-15
3908.25 3.2556e-15
3910.93 3.2704e-15
3913.61 3.5537e-15
3916.28 3.0448e-15
3918.96 3.4767e-15
3921.64 3.6598e-15
3924.31 3.4278e-15
3926.99 3.1646e-15
3929.67 2.8543e-15
3932.34 2.618e-15
3935.02 2.5375e-15
3937.7 2.8326e-15
3940.37 2.8435e-15
3943.05 3.1927e-15
3945.73 3.4756e-15
3948.4 3.3526e-15
3951.08 3.2857e-15
3953.75 3.6075e-15
3956.43 3.1177e-15
3959.11 3.2847e-15
3961.78 2.7131e-15
3964.46 2.5312e-15
3967.14 2.3143e-15
3969.81 2.1063e-15
3972.49 2.2758e-15
3975.17 2.4367e-15
3977.84 2.7322e-15
3980.52 3.0507e-15
3983.2 3.0934e-15
3985.87 3.3313e-15
3988.55 3.5884e-15
3991.23 3.5026e-15
3993.9 3.6428e-15
3996.58 3.4159e-15
3999.26 3.6405e-15
4001.93 3.7553e-15
4004.61 3.7071e-15
4007.29 3.6781e-15
4009.96 3.6356e-15
4012.64 3.6394e-15
4015.32 3.7818e-15
4017.99 4.2252e-15
4020.67 4.0039e-15
4023.35 3.9726e-15
4026.02 4.1214e-15
4028.7 3.6582e-15
4031.38 3.5152e-15
4034.05 4.0839e-15
4036.73 3.482e-15
4039.4 3.8275e-15
4042.08 4.0551e-15
4044.76 3.9974e-15
4047.43 4.0273e-15
4050.11 4.0485e-15
4052.79 3.5079e-15
4055.46 3.6936e-15
4058.14 3.9165e-15
4060.82 3.8624e-15
4063.49 3.8729e-15
4066.17 3.8233e-15
4068.85 3.7813e-15
4071.52 3.8634e-15
4074.2 3.5788e-15
4076.88 3.7311e-15
4079.55 3.8054e-15
4082.23 3.8332e-15
4084.91 3.5265e-15
4087.58 3.6116e-15
4090.26 3.3136e-15
4092.94 3.5322e-15
4095.61 3.5054e-15
4098.29 3.0598e-15
4100.97 2.8475e-15
4103.64 3.3261e-15
4106.32 3.1782e-15
4109.0 3.3937e-15
4111.67 3.5252e-15
4114.35 3.6705e-15
4117.03 3.5917e-15
4119.7 3.6388e-15
4122.38 3.919e-15
4125.05 3.7875e-15
4127.73 3.7437e-15
4130.41 3.9434e-15
4133.08 3.7994e-15
4135.76 4.0203e-15
4138.44 3.7917e-15
4141.11 3.5819e-15
4143.79 3.8482e-15
4146.47 3.7934e-15
4149.14 4.0883e-15
4151.82 3.9604e-15
4154.5 3.7927e-15
4157.17 3.9238e-15
4159.85 3.7962e-15
4162.53 4.1563e-15
4165.2 4.2679e-15
4167.88 3.8175e-15
4170.56 3.8909e-15
4173.23 3.6142e-15
4175.91 3.9317e-15
4178.59 4.342e-15
4181.26 3.8353e-15
4183.94 3.8796e-15
4186.62 4.2141e-15
4189.29 4.0138e-15
4191.97 4.0443e-15
4194.65 3.617e-15
4197.32 3.757e-15
4200.0 4.0921e-15
4202.68 4.0022e-15
4205.35 3.5762e-15
4208.03 3.9576e-15
4210.71 4.1552e-15
4213.38 4.3225e-15
4216.06 4.3871e-15
4218.73 4.126e-15
4221.41 3.9728e-15
4224.09 3.8844e-15
4226.76 3.8377e-15
4229.44 3.5521e-15
4232.12 3.6811e-15
4234.79 3.8886e-15
4237.47 4.0165e-15
4240.15 3.9925e-15
4242.82 4.0448e-15
4245.5 3.9028e-15
4248.18 3.8284e-15
4250.85 4.0962e-15
4253.53 4.0548e-15
4256.21 3.9964e-15
4258.88 4.1534e-15
4261.56 3.8727e-15
4264.24 3.7905e-15
4266.91 3.9124e-15
4269.59 4.0293e-15
4272.27 4.0583e-15
4274.94 3.7794e-15
4277.62 3.907e-15
4280.3 4.0449e-15
4282.97 3.8838e-15
4285.65 4.1396e-15
4288.33 3.955e-15
4291.0 3.6271e-15
4293.68 3.5558e-15
4296.36 3.3672e-15
4299.03 3.7744e-15
4301.71 3.5744e-15
4304.38 3.2154e-15
4307.06 3.2336e-15
4309.74 3.5543e-15
4312.41 3.7498e-15
4315.09 3.5747e-15
4317.77 3.8775e-15
4320.44 3.8636e-15
4323.12 3.844e-15
4325.8 3.472e-15
4328.47 3.6103e-15
4331.15 3.7636e-15
4333.83 3.5842e-15
4336.5 3.7779e-15
4339.18 3.7532e-15
4341.86 3.6971e-15
4344.53 3.5505e-15
4347.21 3.3603e-15
4349.89 3.34e-15
4352.56 3.4509e-15
4355.24 3.8673e-15
4357.92 4.3169e-15
4360.59 4.5496e-15
4363.27 4.2695e-15
4365.95 4.1483e-15
4368.62 4.1915e-15
4371.3 4.3499e-15
4373.98 4.1269e-15
4376.65 4.2589e-15
4379.33 4.1802e-15
4382.01 4.1979e-15
4384.68 4.0153e-15
4387.36 3.8632e-15
4390.03 4.1059e-15
4392.71 4.3503e-15
4395.39 4.1949e-15
4398.06 3.9697e-15
4400.74 4.0055e-15
4403.42 4.0679e-15
4406.09 4.1108e-15
4408.77 4.0916e-15
4411.45 4.0786e-15
4414.12 4.1117e-15
4416.8 4.184e-15
4419.48 4.4601e-15
4422.15 4.137e-15
4424.83 4.1634e-15
4427.51 4.1335e-15
4430.18 4.1406e-15
4432.86 4.1255e-15
4435.54 4.0726e-15
4438.21 4.2332e-15
4440.89 4.1514e-15
4443.57 4.2209e-15
4446.24 4.2641e-15
4448.92 4.1576e-15
4451.6 4.106e-15
4454.27 4.0295e-15
4456.95 4.0569e-15
4459.63 3.8964e-15
4462.3 4.1213e-15
4464.98 4.0547e-15
4467.66 4.1266e-15
4470.33 4.3207e-15
4473.01 4.208e-15
4475.69 4.1498e-15
4478.36 4.2286e-15
4481.04 4.2445e-15
4483.71 4.1645e-15
4486.39 4.2377e-15
4489.07 4.444e-15
4491.74 4.4673e-15
4494.42 4.2276e-15
4497.1 4.4146e-15
4499.77 4.2913e-15
4502.45 4.4563e-15
4505.13 4.4599e-15
4507.8 4.5501e-15
4510.48 4.7542e-15
4513.16 4.6091e-15
4515.83 4.5896e-15
4518.51 4.5641e-15
4521.19 4.4588e-15
4523.86 4.3467e-15
4526.54 4.2414e-15
4529.22 4.1343e-15
4531.89 4.1827e-15
4534.57 4.1015e-15
4537.25 4.0489e-15
4539.92 4.3936e-15
4542.6 4.5247e-15
4545.28 4.2864e-15
4547.95 4.264e-15
4550.63 4.2447e-15
4553.31 4.279e-15
4555.98 4.2118e-15
4558.66 4.2989e-15
4561.34 4.3421e-15
4564.01 4.4043e-15
4566.69 4.2862e-15
4569.36 4.1298e-15
4572.04 4.2433e-15
4574.72 4.4954e-15
4577.39 4.4423e-15
4580.07 4.3798e-15
4582.75 4.1788e-15
4585.42 4.4262e-15
4588.1 4.4003e-15
4590.78 4.5147e-15
4593.45 4.2354e-15
4596.13 4.706e-15
4598.81 4.5795e-15
4601.48 4.4465e-15
4604.16 4.6962e-15
4606.84 4.8609e-15
4609.51 4.8552e-15
4612.19 4.7407e-15
4614.87 4.498e-15
4617.54 4.6653e-15
4620.22 4.7564e-15
4622.9 4.7637e-15
4625.57 4.7452e-15
4628.25 4.994e-15
4630.93 4.7011e-15
4633.6 4.5767e-15
4636.28 4.5834e-15
4638.96 4.5628e-15
4641.63 4.5658e-15
4644.31 4.2808e-15
4646.99 4.4857e-15
4649.66 4.631e-15
4652.34 4.7285e-15
4655.01 4.6128e-15
4657.69 4.6234e-15
4660.37 4.7014e-15
4663.04 4.3872e-15
4665.72 4.8264e-15
4668.4 4.5522e-15
4671.07 4.6251e-15
4673.75 4.4578e-15
4676.43 4.2654e-15
4679.1 4.5046e-15
4681.78 4.6624e-15
4684.46 4.7472e-15
4687.13 4.4285e-15
4689.81 4.6581e-15
4692.49 4.6324e-15
4695.16 4.471e-15
4697.84 4.6559e-15
4700.52 4.4425e-15
4703.19 4.1264e-15
4705.87 4.4043e-15
4708.55 4.3594e-15
4711.22 4.374e-15
4713.9 4.3596e-15
4716.58 4.3624e-15
4719.25 4.4009e-15
4721.93 4.5114e-15
4724.61 4.4667e-15
4727.28 4.6487e-15
4729.96 4.4321e-15
4732.64 4.4186e-15
4735.31 4.4966e-15
4737.99 4.4885e-15
4740.67 4.2194e-15
4743.34 4.6727e-15
4746.02 4.6443e-15
4748.69 4.8102e-15
4751.37 4.6962e-15
4754.05 4.2326e-15
4756.72 4.5901e-15
4759.4 4.2351e-15
4762.08 4.5227e-15
4764.75 4.4411e-15
4767.43 4.3024e-15
4770.11 4.7575e-15
4772.78 4.5355e-15
4775.46 4.5618e-15
4778.14 4.603e-15
4780.81 4.6091e-15
4783.49 4.7304e-15
4786.17 4.3661e-15
4788.84 4.4349e-15
4791.52 4.5758e-15
4794.2 4.6603e-15
4796.87 4.3766e-15
4799.55 4.2067e-15
4802.23 4.3629e-15
4804.9 4.669e-15
4807.58 4.2943e-15
4810.26 4.4062e-15
4812.93 4.3258e-15
4815.61 4.5654e-15
4818.29 4.7409e-15
4820.96 4.6241e-15
4823.64 4.2983e-15
4826.32 3.873e-15
4828.99 4.1525e-15
4831.67 4.3693e-15
4834.34 4.1431e-15
4837.02 4.2699e-15
4839.7 4.4968e-15
4842.37 4.3328e-15
4845.05 4.3609e-15
4847.73 3.986e-15
4850.4 3.8452e-15
4853.08 4.0767e-15
4855.76 4.5415e-15
4858.43 4.5658e-15
4861.11 4.9012e-15
4863.79 4.8767e-15
4866.46 4.1175e-15
4869.14 3.7814e-15
4871.82 3.7508e-15
4874.49 3.7869e-15
4877.17 3.567e-15
4879.85 3.8101e-15
4882.52 4.1635e-15
4885.2 4.275e-15
4887.88 4.0195e-15
4890.55 4.2196e-15
4893.23 4.1588e-15
4895.91 4.2469e-15
4898.58 4.3845e-15
4901.26 4.606e-15
4903.94 4.439e-15
4906.61 4.3549e-15
4909.29 4.6555e-15
4911.97 4.44e-15
4914.64 4.2097e-15
4917.32 4.1066e-15
4919.99 4.2676e-15
4922.67 4.0521e-15
4925.35 4.2589e-15
4928.02 4.1827e-15
4930.7 4.6238e-15
4933.38 4.4604e-15
4936.05 4.5053e-15
4938.73 4.3675e-15
4941.41 4.4626e-15
4944.08 4.461e-15
4946.76 4.5775e-15
4949.44 4.5262e-15
4952.11 4.6992e-15
4954.79 4.7939e-15
4957.47 5.1737e-15
4960.14 5.3284e-15
4962.82 4.8381e-15
4965.5 4.6367e-15
4968.17 4.4514e-15
4970.85 4.3137e-15
4973.53 4.2769e-15
4976.2 4.5143e-15
4978.88 4.3113e-15
4981.56 4.3239e-15
4984.23 4.2937e-15
4986.91 4.4623e-15
4989.59 3.9982e-15
4992.26 4.5162e-15
4994.94 4.6393e-15
4997.62 4.3884e-15
5000.29 5.0116e-15
5002.97 6.3066e-15
5005.65 7.3294e-15
5008.32 7.4766e-15
5011.0 5.9904e-15
5013.67 4.9131e-15
5016.35 4.2613e-15
5019.03 4.3169e-15
5021.7 4.3638e-15
5024.38 4.3324e-15
5027.06 4.3974e-15
5029.73 4.1976e-15
5032.41 4.4686e-15
5035.09 4.4561e-15
5037.76 4.2937e-15
5040.44 4.3431e-15
5043.12 4.2109e-15
5045.79 4.5727e-15
5048.47 4.5042e-15
5051.15 4.2788e-15
5053.82 4.2569e-15
5056.5 4.4097e-15
5059.18 4.4502e-15
5061.85 4.4654e-15
5064.53 4.0881e-15
5067.21 4.2495e-15
5069.88 4.0029e-15
5072.56 4.3684e-15
5075.24 4.3397e-15
5077.91 4.287e-15
5080.59 4.0499e-15
5083.27 4.3202e-15
5085.94 4.0346e-15
5088.62 4.0998e-15
5091.3 4.2714e-15
5093.97 4.8745e-15
5096.65 4.2783e-15
5099.32 4.0961e-15
5102.0 4.4973e-15
5104.68 4.2959e-15
5107.35 4.3468e-15
5110.03 4.1944e-15
5112.71 4.3266e-15
5115.38 4.4566e-15
5118.06 4.3521e-15
5120.74 4.4025e-15
5123.41 4.3642e-15
5126.09 4.1771e-15
5128.77 4.1591e-15
5131.44 4.2267e-15
5134.12 4.4356e-15
5136.8 4.375e-15
5139.47 4.1129e-15
5142.15 4.2725e-15
5144.83 4.0413e-15
5147.5 4.1126e-15
5150.18 4.2979e-15
5152.86 4.3538e-15
5155.53 4.2758e-15
5158.21 4.2123e-15
5160.89 4.0077e-15
5163.56 3.9751e-15
5166.24 4.113e-15
5168.92 3.3893e-15
5171.59 3.6798e-15
5174.27 3.9135e-15
5176.95 4.0627e-15
5179.62 3.9865e-15
5182.3 3.9435e-15
5184.98 4.1495e-15
5187.65 3.853e-15
5190.33 4.0925e-15
5193.0 4.3887e-15
5195.68 4.2754e-15
5198.36 4.6765e-15
5201.03 4.6396e-15
5203.71 4.3883e-15
5206.39 4.4174e-15
5209.06 4.3932e-15
5211.74 4.6958e-15
5214.42 4.0617e-15
5217.09 4.3873e-15
5219.77 4.0087e-15
5222.45 4.4953e-15
5225.12 4.2278e-15
5227.8 4.2682e-15
5230.48 4.0935e-15
5233.15 4.4731e-15
5235.83 4.3497e-15
5238.51 4.4056e-15
5241.18 4.571e-15
5243.86 4.5992e-15
5246.54 4.2719e-15
5249.21 4.7724e-15
5251.89 4.1864e-15
5254.57 4.5639e-15
5257.24 4.4238e-15
5259.92 4.5533e-15
5262.6 4.2752e-15
5265.27 4.0958e-15
5267.95 3.8687e-15
5270.63 4.274e-15
5273.3 3.9776e-15
5275.98 3.9753e-15
5278.65 4.1766e-15
5281.33 4.3304e-15
5284.01 4.1459e-15
5286.68 4.3513e-15
5289.36 4.8093e-15
5292.04 4.6486e-15
5294.71 4.5965e-15
5297.39 4.4041e-15
5300.07 4.5554e-15
5302.74 4.8266e-15
5305.42 4.8196e-15
5308.1 4.7485e-15
5310.77 4.4335e-15
5313.45 4.3954e-15
5316.13 4.1145e-15
5318.8 4.3954e-15
5321.48 4.3574e-15
5324.16 4.3398e-15
5326.83 4.2311e-15
5329.51 4.1884e-15
5332.19 4.3721e-15
5334.86 4.3253e-15
5337.54 4.4273e-15
5340.22 4.4977e-15
5342.89 4.3833e-15
5345.57 4.3951e-15
5348.25 4.329e-15
5350.92 4.7311e-15
5353.6 4.4904e-15
5356.28 4.6411e-15
5358.95 4.5693e-15
5361.63 4.5815e-15
5364.3 4.5959e-15
5366.98 4.5851e-15
5369.66 4.494e-15
5372.33 4.3887e-15
5375.01 4.23e-15
5377.69 4.3596e-15
5380.36 4.2187e-15
5383.04 4.3728e-15
5385.72 4.6915e-15
5388.39 4.4972e-15
5391.07 4.2595e-15
5393.75 4.5402e-15
5396.42 4.2711e-15
5399.1 4.6546e-15
5401.78 4.3561e-15
5404.45 4.1036e-15
5407.13 4.2514e-15
5409.81 4.2499e-15
5412.48 4.1463e-15
5415.16 4.3189e-15
5417.84 4.2646e-15
5420.51 4.4663e-15
5423.19 4.5876e-15
5425.87 4.0964e-15
5428.54 4.2021e-15
