# col1 col2
# An Atlas of Galaxy Spectral Energy Distributions from the Ultraviolet to the Mid-Infrared
# Brown et al. (2014)
# http://dx.doi.org/10.5072/03/529D3551F0117
# 
# Column 1 : Restframe Wavelength (Angstrom)
# Column 2 : Flux per unit wavelength (ergs/s/cm^2/Angstrom)
# Column 3 : Observed wavelength (Angstrom)
# Column 4 : Source (0 = model, 1 = Optical Spectrum, 2 = Akari, 3 = Spitzer IRS)
# 
102.01 1.0683e-21
103.91 1.4018e-21
106.08 1.8651e-21
108.06 2.5334e-21
110.06 3.8256e-21
113.93 6.1759e-21
117.94 9.326e-21
120.96 3.7299e-20
124.92 5.1725e-20
126.95 5.8843e-20
128.13 6.3929e-20
131.11 7.6155e-20
132.02 9.2193e-20
133.86 1.0249e-19
136.98 1.389e-19
139.85 1.617e-19
143.1 4.8944e-19
147.11 1.3858e-18
150.89 1.5948e-18
155.11 1.8522e-18
159.09 2.1562e-18
162.05 2.3916e-18
165.82 2.7778e-18
170.08 3.1456e-18
172.84 3.465e-18
176.87 3.8967e-18
180.16 4.2335e-18
181.82 4.4843e-18
186.06 4.9969e-18
190.83 5.6715e-18
193.93 6.1617e-18
197.99 6.7561e-18
202.14 7.4421e-18
204.95 7.9744e-18
210.21 8.4859e-18
216.1 1.0039e-17
220.11 1.0932e-17
223.18 1.1447e-17
226.8 1.2465e-17
229.96 1.9665e-17
234.23 3.4096e-17
240.24 4.3822e-17
245.84 4.3321e-17
252.14 4.794e-17
256.83 4.2043e-17
259.81 4.9057e-17
264.03 5.2686e-17
268.94 5.4287e-17
273.94 5.5552e-17
279.03 5.6977e-17
284.22 5.8438e-17
290.17 5.7372e-17
296.24 5.9937e-17
301.06 6.0631e-17
308.07 6.3052e-17
318.16 6.6481e-17
327.83 6.8659e-17
337.79 7.0097e-17
348.06 7.1236e-17
356.98 7.256e-17
366.14 7.4079e-17
374.67 7.4765e-17
385.17 7.3231e-17
395.05 7.6155e-17
405.18 7.7392e-17
413.67 7.7392e-17
422.33 7.6859e-17
430.18 7.6683e-17
441.21 7.7392e-17
451.49 7.6683e-17
459.88 7.6155e-17
469.51 7.5805e-17
480.45 7.598e-17
490.51 7.4421e-17
499.63 7.4937e-17
506.58 7.3739e-17
512.45 7.6506e-17
519.58 7.6155e-17
530.46 7.4937e-17
540.32 7.256e-17
550.36 7.2227e-17
560.59 7.34e-17
569.7 7.4421e-17
580.3 7.2895e-17
589.72 7.3569e-17
600.69 7.14e-17
610.45 6.4818e-17
620.37 7.3063e-17
630.45 7.206e-17
640.69 7.2227e-17
649.6 7.2227e-17
658.64 7.1564e-17
664.74 7.2727e-17
675.54 7.2227e-17
684.93 6.9614e-17
694.46 7.4079e-17
705.75 7.0745e-17
715.57 7.4765e-17
725.52 7.4765e-17
735.61 7.4937e-17
745.85 7.6683e-17
754.48 7.7571e-17
764.98 7.4079e-17
775.62 8.0112e-17
784.6 8.0482e-17
795.52 8.2167e-17
804.73 8.3502e-17
815.92 8.4081e-17
825.37 8.7437e-17
834.93 7.633e-17
844.6 8.8043e-17
854.38 8.845e-17
864.27 9.1769e-17
874.28 9.5213e-17
884.4 9.993e-17
894.64 1.0273e-16
905.0 1.0109e-16
915.48 1.4781e-16
923.95 8.6835e-16
934.65 1.8823e-15
945.47 3.6618e-15
954.22 5.4038e-15
965.27 5.6846e-15
974.2 8.3887e-16
985.48 4.1947e-15
994.6 4.8944e-15
1006.12 7.9744e-15
1015.43 7.9378e-15
1024.82 3.465e-15
1034.31 5.0781e-15
1043.88 1.0907e-14
1055.96 1.0732e-14
1065.73 7.8831e-15
1075.6 9.8333e-15
1085.55 7.2393e-15
1095.59 1.0537e-14
1105.73 1.0155e-14
1115.96 9.4994e-15
1126.29 8.3887e-15
1134.09 1.1526e-14
1144.59 1.0273e-14
1155.18 1.1238e-14
1165.87 1.158e-14
1173.95 7.4937e-15
1184.81 1.1238e-14
1195.77 6.8817e-15
1204.06 4.5363e-15
1215.2 3.5375e-15
1223.63 7.5457e-15
1234.95 1.2322e-14
1246.38 1.3699e-14
1255.02 1.2785e-14
1263.72 1.0561e-14
1275.41 1.4679e-14
1284.25 1.5585e-14
1296.13 1.1368e-14
1305.12 1.1135e-14
1314.16 1.5021e-14
1326.32 1.4246e-14
1335.52 1.2014e-14
1344.77 1.5371e-14
1354.1 1.4815e-14
1363.48 1.2814e-14
1376.1 1.3731e-14
1385.64 1.389e-14
1395.24 1.2014e-14
1404.91 1.2494e-14
1414.65 1.2609e-14
1424.46 1.3234e-14
1434.33 1.3023e-14
1440.95 1.3954e-14
1447.6 1.4312e-14
1454.28 1.3762e-14
1464.36 1.2436e-14
1474.51 1.2465e-14
1484.74 1.2874e-14
1495.03 1.3204e-14
1505.39 1.2322e-14
1512.34 1.0634e-14
1515.83 1.166e-14
1526.33 1.111e-14
1533.38 9.3907e-15
1544.01 1.0807e-14
1554.71 1.0109e-14
1565.49 1.0202e-14
1576.34 1.0957e-14
1583.61 1.1714e-14
1594.59 1.1959e-14
1605.64 1.1768e-14
1616.77 1.1877e-14
1624.24 1.1033e-14
1635.5 1.1932e-14
1646.83 1.2153e-14
1654.43 1.1008e-14
1665.9 1.2266e-14
1673.59 1.0537e-14
1677.45 1.2294e-14
1685.19 1.3083e-14
1696.87 1.2153e-14
1704.7 1.1553e-14
1716.52 1.0782e-14
1724.44 1.0757e-14
1736.4 1.1633e-14
1744.41 1.1342e-14
1756.5 1.2322e-14
1764.61 1.1033e-14
1776.84 1.1395e-14
1785.04 1.1633e-14
1793.28 1.2697e-14
1805.72 1.258e-14
1814.05 1.1395e-14
1826.62 1.1714e-14
1835.06 1.1135e-14
1843.53 1.0062e-14
1856.3 1.0085e-14
1864.87 1.0488e-14
1873.48 1.1606e-14
1886.47 1.0561e-14
1895.17 1.0132e-14
1903.92 1.0782e-14
1917.12 1.032e-14
1925.97 1.0155e-14
1934.86 1.0416e-14
1943.79 1.0982e-14
1952.76 1.0249e-14
1966.3 1.1447e-14
1975.37 1.1768e-14
1984.49 1.1084e-14
1993.65 1.0708e-14
2002.85 1.1059e-14
2016.74 1.0561e-14
2026.05 1.1135e-14
2035.4 1.0537e-14
2044.79 1.1084e-14
2054.23 1.0537e-14
2063.71 1.0512e-14
2073.24 1.1395e-14
2078.02 1.1059e-14
2082.81 1.166e-14
2097.25 1.0932e-14
2106.93 1.0907e-14
2116.65 1.1084e-14
2126.42 1.1187e-14
2136.24 1.0226e-14
2146.1 1.0732e-14
2156.0 1.1187e-14
2165.95 1.0708e-14
2175.95 1.061e-14
2186.0 1.0561e-14
2196.09 1.1084e-14
2206.22 1.0708e-14
2216.41 9.9471e-15
2226.64 9.6538e-15
2236.91 1.0633e-14
2247.24 1.0081e-14
2252.42 9.3849e-15
2262.82 9.6219e-15
2273.26 1.0002e-14
2283.75 1.0494e-14
2294.29 9.767e-15
2304.88 9.8762e-15
2315.52 9.2134e-15
2326.21 6.8588e-15
2336.95 8.205e-15
2342.34 7.7623e-15
2353.15 8.8271e-15
2364.01 7.7205e-15
2374.92 8.1184e-15
2385.88 7.266e-15
2396.9 7.9272e-15
2402.42 7.5515e-15
2413.51 7.8678e-15
2424.65 8.7433e-15
2435.84 8.4236e-15
2447.09 9.0848e-15
2452.73 9.0204e-15
2464.05 8.7911e-15
2475.42 8.3533e-15
2486.85 8.3115e-15
2492.58 7.954e-15
2504.09 9.2342e-15
2515.64 7.5895e-15
2527.26 7.3795e-15
2533.08 7.7434e-15
2544.77 7.6515e-15
2556.52 8.8218e-15
2562.41 8.2122e-15
2574.24 8.9799e-15
2586.12 8.6912e-15
2592.09 8.433e-15
2604.05 7.9945e-15
2616.07 7.791e-15
2622.1 8.5015e-15
2634.2 9.5346e-15
2646.36 1.0993e-14
2652.46 1.2134e-14
2664.71 9.8132e-15
2677.01 1.0607e-14
2683.18 1.0852e-14
2695.56 9.8245e-15
2708.0 1.0595e-14
2714.25 9.3974e-15
2726.77 9.0532e-15
2733.06 9.856e-15
2745.68 7.6824e-15
2752.0 8.211e-15
2764.71 8.9369e-15
2777.47 9.4838e-15
2783.87 8.2201e-15
2796.72 6.0349e-15
2803.17 6.6003e-15
2816.11 9.1697e-15
2822.6 1.055e-14
2835.63 1.021e-14
2842.16 9.4826e-15
2855.28 8.3122e-15
2861.87 1.0805e-14
2875.07 1.1545e-14
2881.7 1.1048e-14
2895.0 1.1457e-14
2908.37 1.3516e-14
2928.53 1.2518e-14
2948.83 1.2139e-14
2969.27 1.2701e-14
2989.85 1.278e-14
3010.57 1.3097e-14
3031.44 1.3238e-14
3052.45 1.3381e-14
3066.54 1.3749e-14
3087.8 1.3929e-14
3109.2 1.4407e-14
3130.76 1.4002e-14
3152.46 1.3991e-14
3167.01 1.4408e-14
3188.96 1.3099e-14
3211.07 1.4121e-14
3233.32 1.2633e-14
3248.25 1.4937e-14
3270.76 1.6289e-14
3293.44 1.5978e-14
3308.64 1.5786e-14
3323.91 1.5704e-14
3331.57 1.6139e-14
3339.25 1.4614e-14
3346.95 1.7204e-14
3354.67 1.5722e-14
3362.4 1.4073e-14
3370.15 1.4698e-14
3377.92 1.6074e-14
3385.71 1.531e-14
3393.51 1.6552e-14
3401.33 1.8102e-14
3409.17 1.5761e-14
3417.03 1.5152e-14
3424.91 1.7351e-14
3432.81 1.8122e-14
3440.72 1.6791e-14
3448.65 1.4687e-14
3456.6 1.5769e-14
3464.57 1.441e-14
3472.56 1.6848e-14
3480.56 1.4703e-14
3488.58 1.5932e-14
3496.63 1.5422e-14
3504.69 1.7179e-14
3512.77 1.6326e-14
3520.86 1.7528e-14
3528.98 1.4243e-14
3537.12 1.7197e-14
3545.27 1.7714e-14
3553.44 1.8205e-14
3561.63 1.738e-14
3569.84 1.4822e-14
3575.24 1.0771e-14
3577.92 1.7218e-14
3580.59 9.9882e-15
3583.26 1.3237e-14
3585.94 1.533e-14
3588.61 1.4053e-14
3591.28 1.9216e-14
3593.96 1.3677e-14
3596.63 1.1149e-14
3599.3 1.8459e-14
3601.97 1.8388e-14
3604.65 1.7888e-14
3607.32 1.5937e-14
3609.99 1.2886e-14
3612.67 1.1145e-14
3615.34 1.529e-14
3618.01 1.5119e-14
3620.68 1.6932e-14
3623.36 1.457e-14
3626.03 1.6632e-14
3628.7 1.9813e-14
3631.38 1.9904e-14
3634.05 1.5349e-14
3636.72 1.8682e-14
3639.39 1.6811e-14
3642.07 1.57e-14
3644.74 1.9755e-14
3647.41 1.6336e-14
3650.09 1.8647e-14
3652.76 2.0751e-14
3655.43 1.9541e-14
3658.1 1.6005e-14
3660.78 1.6717e-14
3663.45 1.8286e-14
3666.12 2.0957e-14
3668.8 2.2529e-14
3671.47 1.9522e-14
3674.14 1.7891e-14
3676.81 2.1397e-14
3679.49 1.9417e-14
3682.16 1.5252e-14
3684.83 1.5348e-14
3687.51 1.3344e-14
3690.18 1.5145e-14
3692.85 1.6393e-14
3695.53 1.6534e-14
3698.2 1.9098e-14
3700.87 2.1477e-14
3703.54 2.0781e-14
3706.22 1.8796e-14
3708.89 1.7295e-14
3711.56 1.8412e-14
3714.24 1.8803e-14
3716.91 1.7069e-14
3719.58 2.0175e-14
3722.25 2.0816e-14
3724.93 2.6094e-14
3727.6 3.1625e-14
3730.27 3.3471e-14
3732.95 3.2668e-14
3735.62 2.6701e-14
3738.29 2.5334e-14
3740.96 2.0738e-14
3743.64 1.9727e-14
3746.31 1.6944e-14
3748.98 1.5699e-14
3751.66 1.7971e-14
3754.33 1.8907e-14
3757.0 2.1121e-14
3759.67 2.405e-14
3762.35 1.9231e-14
3765.02 1.8886e-14
3767.69 2.1701e-14
3770.37 1.9157e-14
3773.04 2.0694e-14
3775.71 2.0297e-14
3778.38 1.9238e-14
3781.06 1.9046e-14
3783.73 2.5065e-14
3786.4 2.6836e-14
3789.08 2.4043e-14
3791.75 2.0992e-14
3794.42 1.9885e-14
3797.1 1.7465e-14
3799.77 2.223e-14
3802.44 2.0748e-14
3805.11 1.8803e-14
3807.79 2.235e-14
3810.46 2.1609e-14
3813.13 1.9374e-14
3815.81 2.0445e-14
3818.48 2.0563e-14
3821.15 1.9904e-14
3823.82 1.9945e-14
3826.5 1.794e-14
3829.17 1.6748e-14
3831.84 1.602e-14
3834.52 1.4105e-14
3837.19 1.4033e-14
3839.86 1.7517e-14
3842.53 1.8666e-14
3845.21 1.6529e-14
3847.88 1.5996e-14
3850.55 1.8059e-14
3853.23 2.03e-14
3855.9 2.1659e-14
3858.57 2.1817e-14
3861.24 2.0213e-14
3863.92 2.1831e-14
3866.59 2.4122e-14
3869.26 2.2923e-14
3871.94 1.9551e-14
3874.61 2.1127e-14
3877.28 2.1085e-14
3879.95 1.9622e-14
3882.63 2.2133e-14
3885.3 2.0707e-14
3887.97 1.7897e-14
3890.65 2.1945e-14
3893.32 2.3071e-14
3895.99 2.3422e-14
3898.67 2.4871e-14
3901.34 2.5143e-14
3904.01 2.4913e-14
3906.68 2.5154e-14
3909.36 2.4798e-14
3912.03 2.871e-14
3914.7 2.6096e-14
3917.38 2.5571e-14
3920.05 2.6548e-14
3922.72 2.3355e-14
3925.39 2.3394e-14
3928.07 2.2217e-14
3930.74 1.8613e-14
3933.41 1.8527e-14
3936.09 1.7259e-14
3938.76 1.5594e-14
3941.43 1.8453e-14
3944.1 2.2417e-14
3946.78 2.5028e-14
3949.45 2.5171e-14
3952.12 2.6977e-14
3954.8 2.6197e-14
3957.47 2.6101e-14
3960.14 2.6951e-14
3962.81 2.2059e-14
3965.49 1.7013e-14
3968.16 1.7086e-14
3970.83 1.6021e-14
3973.51 1.7251e-14
3976.18 1.9618e-14
3978.85 1.98e-14
3981.52 2.402e-14
3984.2 2.5143e-14
3986.87 2.3232e-14
3989.54 2.5587e-14
3992.22 2.5945e-14
3994.89 2.8281e-14
3997.56 2.9286e-14
4000.24 3.028e-14
4002.91 2.9626e-14
4005.58 2.9798e-14
4008.25 3.1844e-14
4010.93 3.1447e-14
4013.6 3.2078e-14
4016.27 3.0946e-14
4018.95 2.9341e-14
4021.62 3.1172e-14
4024.29 3.1822e-14
4026.96 3.169e-14
4029.64 2.9635e-14
4032.31 3.1822e-14
4034.98 3.1331e-14
4037.66 2.9635e-14
4040.33 3.0883e-14
4043.0 3.1188e-14
4045.67 2.9207e-14
4048.35 2.9259e-14
4051.02 3.0868e-14
4053.69 3.0001e-14
4056.37 2.9661e-14
4059.04 2.9497e-14
4061.71 3.06e-14
4064.38 2.9558e-14
4067.06 3.1244e-14
4069.73 3.0346e-14
4072.4 3.1601e-14
4075.08 3.0647e-14
4077.75 3.2493e-14
4080.42 3.1576e-14
4083.09 3.3155e-14
4085.77 3.3906e-14
4088.44 3.2874e-14
4091.11 3.092e-14
4093.79 3.1565e-14
4096.46 3.0871e-14
4099.13 3.1445e-14
4101.81 2.8884e-14
4104.48 2.8634e-14
4107.15 3.0315e-14
4109.82 3.0511e-14
4112.5 3.0729e-14
4115.17 3.2763e-14
4117.84 3.1972e-14
4120.52 3.2475e-14
4123.19 3.1613e-14
4125.86 2.9069e-14
4128.53 3.1246e-14
4131.21 3.5076e-14
4133.88 3.0185e-14
4136.55 3.0129e-14
4139.23 3.1897e-14
4141.9 3.1368e-14
4144.57 3.0402e-14
4147.24 2.937e-14
4149.92 3.1701e-14
4152.59 3.0931e-14
4155.26 2.8543e-14
4157.94 2.9477e-14
4160.61 3.1322e-14
4163.28 3.203e-14
4165.95 3.2127e-14
4168.63 2.9863e-14
4171.3 3.2369e-14
4173.97 2.8906e-14
4176.65 2.8046e-14
4179.32 2.8988e-14
4181.99 3.0927e-14
4184.66 3.0199e-14
4187.34 3.1086e-14
4190.01 3.26e-14
4192.68 3.2514e-14
4195.36 3.2022e-14
4198.03 3.0384e-14
4200.7 3.1725e-14
4203.38 3.1325e-14
4206.05 3.3191e-14
4208.72 3.2149e-14
4211.39 3.4202e-14
4214.07 3.3362e-14
4216.74 3.3412e-14
4219.41 3.2087e-14
4222.09 3.0387e-14
4224.76 3.1005e-14
4227.43 3.2425e-14
4230.1 2.8688e-14
4232.78 3.0051e-14
4235.45 3.0245e-14
4238.12 3.1138e-14
4240.8 3.1804e-14
4243.47 3.3488e-14
4246.14 3.167e-14
4248.81 3.3987e-14
4251.49 3.1956e-14
4254.16 3.1906e-14
4256.83 3.1996e-14
4259.51 2.9904e-14
4262.18 3.121e-14
4264.85 3.2769e-14
4267.52 3.282e-14
4270.2 3.3476e-14
4272.87 3.2287e-14
4275.54 3.1824e-14
4278.22 3.4088e-14
4280.89 3.0856e-14
4283.56 3.085e-14
4286.23 3.0554e-14
4288.91 3.0733e-14
4291.58 3.0576e-14
4294.25 3.0648e-14
4296.93 3.21e-14
4299.6 3.0176e-14
4302.27 2.8886e-14
4304.95 2.6265e-14
4307.62 2.6842e-14
4310.29 2.8128e-14
4312.96 2.848e-14
4315.64 3.1169e-14
4318.31 3.2923e-14
4320.98 3.4581e-14
4323.66 3.5284e-14
4326.33 3.2615e-14
4329.0 3.241e-14
4331.67 3.4585e-14
4334.35 3.2649e-14
4337.02 3.1976e-14
4339.69 3.392e-14
4342.37 3.4407e-14
4345.04 3.5665e-14
4347.71 3.4739e-14
4350.38 3.582e-14
4353.06 3.4766e-14
4355.73 3.4908e-14
4358.4 3.3824e-14
4361.08 3.6687e-14
4363.75 3.5806e-14
4366.42 3.5154e-14
4369.09 3.625e-14
4371.77 3.7482e-14
4374.44 3.6689e-14
4377.11 3.3991e-14
4379.79 3.2076e-14
4382.46 3.2159e-14
4385.13 3.1886e-14
4387.8 3.2479e-14
4390.48 3.3053e-14
4393.15 3.3859e-14
4395.82 3.4889e-14
4398.5 3.4447e-14
4401.17 3.3033e-14
4403.84 3.4597e-14
4406.52 3.4208e-14
4409.19 3.5593e-14
4411.86 3.3031e-14
4414.53 3.6002e-14
4417.21 3.7324e-14
4419.88 3.7088e-14
4422.55 3.8531e-14
4425.23 3.6494e-14
4427.9 3.6015e-14
4430.57 3.587e-14
4433.24 3.659e-14
4435.92 3.6172e-14
4438.59 3.8157e-14
4441.26 3.8033e-14
4443.94 3.7955e-14
4446.61 3.873e-14
4449.28 3.9182e-14
4451.95 3.6953e-14
4454.63 3.6662e-14
4457.3 3.7747e-14
4459.97 3.5795e-14
4462.65 3.5229e-14
4465.32 3.6785e-14
4467.99 3.6002e-14
4470.66 3.7194e-14
4473.34 3.9247e-14
4476.01 3.8287e-14
4478.68 3.8275e-14
4481.36 3.9768e-14
4484.03 3.9719e-14
4486.7 3.887e-14
4489.37 3.8648e-14
4492.05 3.9995e-14
4494.72 4.0462e-14
4497.39 4.004e-14
4500.07 3.9857e-14
4502.74 4.1694e-14
4505.41 4.3209e-14
4508.09 4.2801e-14
4510.76 4.3093e-14
4513.43 4.1339e-14
4516.1 4.0749e-14
4518.78 4.0338e-14
4521.45 3.9696e-14
4524.12 3.8482e-14
4526.8 3.7715e-14
4529.47 3.8153e-14
4532.14 3.7884e-14
4534.81 3.8218e-14
4537.49 3.9098e-14
4540.16 3.9461e-14
4542.83 3.9238e-14
4545.51 3.8854e-14
4548.18 3.9676e-14
4550.85 4.0019e-14
4553.52 3.851e-14
4556.2 4.0368e-14
4558.87 3.9666e-14
4561.54 4.0634e-14
4564.22 4.2261e-14
4566.89 4.0253e-14
4569.56 4.1032e-14
4572.23 3.9773e-14
4574.91 4.0416e-14
4577.58 4.0838e-14
4580.25 4.1188e-14
4582.93 4.1326e-14
4585.6 4.1712e-14
4588.27 4.1847e-14
4590.94 4.1415e-14
4593.62 4.0217e-14
4596.29 4.2215e-14
4598.96 4.2742e-14
4601.64 4.3949e-14
4604.31 4.3468e-14
4606.98 4.2924e-14
4609.66 4.3691e-14
4612.33 4.4347e-14
4615.0 4.5112e-14
4617.67 4.404e-14
4620.35 4.4056e-14
4623.02 4.3541e-14
4625.69 4.3452e-14
4628.37 4.4006e-14
4631.04 4.285e-14
4633.71 4.3046e-14
4636.38 4.2832e-14
4639.06 4.2996e-14
4641.73 4.2396e-14
4644.4 4.205e-14
4647.08 4.1863e-14
4649.75 4.2119e-14
4652.42 4.3492e-14
4655.09 4.2324e-14
4657.77 4.3599e-14
4660.44 4.358e-14
4663.11 4.2226e-14
4665.79 4.1366e-14
4668.46 4.0303e-14
4671.13 4.0423e-14
4673.8 4.0302e-14
4676.48 4.1242e-14
4679.15 4.0598e-14
4681.82 3.8919e-14
4684.5 3.938e-14
4687.17 4.0973e-14
4689.84 3.9486e-14
4692.51 4.2716e-14
4695.19 4.1284e-14
4697.86 4.0529e-14
4700.53 4.0013e-14
4703.21 3.8519e-14
4705.88 3.9347e-14
4708.55 4.0015e-14
4711.23 3.8297e-14
4713.9 3.9656e-14
4716.57 4.1044e-14
4719.24 4.1164e-14
4721.92 4.2584e-14
4724.59 4.1733e-14
4727.26 4.1589e-14
4729.94 4.0878e-14
4732.61 4.0296e-14
4735.28 4.1027e-14
4737.95 4.2582e-14
4740.63 4.0065e-14
4743.3 3.9569e-14
4745.97 4.1761e-14
4748.65 4.3438e-14
4751.32 4.2153e-14
4753.99 4.0784e-14
4756.66 4.053e-14
4759.34 4.2296e-14
4762.01 4.1413e-14
4764.68 4.0694e-14
4767.36 4.0017e-14
4770.03 3.8486e-14
4772.7 4.0458e-14
4775.37 4.0607e-14
4778.05 4.1271e-14
4780.72 4.113e-14
4783.39 4.1699e-14
4786.07 4.1748e-14
4788.74 4.2827e-14
4791.41 4.1489e-14
4794.08 4.3162e-14
4796.76 4.4514e-14
4799.43 4.2742e-14
4802.1 4.2804e-14
4804.78 4.2286e-14
4807.45 4.2563e-14
4810.12 4.243e-14
4812.8 4.2698e-14
4815.47 4.1245e-14
4818.14 4.2478e-14
4820.81 4.2458e-14
4823.49 4.2887e-14
4826.16 4.1956e-14
4828.83 4.1713e-14
4831.51 4.314e-14
4834.18 4.2162e-14
4836.85 4.178e-14
4839.52 4.0551e-14
4842.2 4.0212e-14
4844.87 4.0861e-14
4847.54 4.0285e-14
4850.22 3.8547e-14
4852.89 3.9996e-14
4855.56 4.0784e-14
4858.23 4.0976e-14
4860.91 4.3734e-14
4863.58 4.4279e-14
4866.25 4.2347e-14
4868.93 4.3634e-14
4871.6 4.4668e-14
4874.27 4.1433e-14
4876.94 4.0358e-14
4879.62 4.0051e-14
4882.29 3.985e-14
4884.96 4.0851e-14
4887.64 3.9984e-14
4890.31 3.9222e-14
4892.98 3.9301e-14
4895.65 4.0853e-14
4898.33 4.2122e-14
4901.0 4.1263e-14
4903.67 4.1113e-14
4906.35 4.101e-14
4909.02 4.1188e-14
4911.69 4.0845e-14
4914.37 4.2204e-14
4917.04 4.2746e-14
4919.71 4.1199e-14
4922.38 4.0103e-14
4925.06 4.1954e-14
4927.73 4.0441e-14
4930.4 4.2121e-14
4933.08 4.055e-14
4935.75 4.0839e-14
4938.42 4.1313e-14
4941.09 4.099e-14
4943.77 4.2899e-14
4946.44 4.2864e-14
4949.11 4.509e-14
4951.79 4.4416e-14
4954.46 4.4874e-14
4957.13 4.4192e-14
4959.8 4.3261e-14
4962.48 4.1619e-14
4965.15 4.381e-14
4967.82 4.297e-14
4970.5 4.3219e-14
4973.17 4.2611e-14
4975.84 4.2372e-14
4978.51 4.0591e-14
4981.19 3.9682e-14
4983.86 4.1052e-14
4986.53 4.079e-14
4989.21 4.0989e-14
4991.88 4.1324e-14
4994.55 4.0056e-14
4997.22 3.9351e-14
4999.9 4.1109e-14
5002.57 4.4124e-14
5005.24 4.5507e-14
5007.92 5.0134e-14
5010.59 4.7443e-14
5013.26 4.685e-14
5015.94 4.548e-14
5018.61 4.4226e-14
5021.28 4.4367e-14
5023.95 4.1795e-14
5026.63 3.9943e-14
5029.3 4.024e-14
5031.97 4.0127e-14
5034.65 4.0031e-14
5037.32 3.9683e-14
5039.99 3.9731e-14
5042.66 4.0317e-14
5045.34 3.9122e-14
5048.01 4.1308e-14
5050.68 4.0737e-14
5053.36 4.0713e-14
5056.03 4.2403e-14
5058.7 4.2018e-14
5061.37 4.1275e-14
5064.05 4.2235e-14
5066.72 4.2163e-14
5069.39 4.0029e-14
5072.07 4.0728e-14
5074.74 4.0671e-14
5077.41 3.9968e-14
5080.08 4.1402e-14
5082.76 4.1372e-14
5085.43 4.0569e-14
5088.1 4.0315e-14
5090.78 4.1353e-14
5093.45 3.9726e-14
5096.12 3.9054e-14
5098.79 4.0351e-14
5101.47 4.0721e-14
5104.14 4.021e-14
5106.81 3.9273e-14
5109.49 3.9867e-14
5112.16 4.0114e-14
5114.83 3.9432e-14
5117.51 3.87e-14
5120.18 4.1445e-14
5122.85 4.123e-14
5125.52 3.9799e-14
5128.2 4.076e-14
5130.87 3.9988e-14
5133.54 3.8612e-14
5136.22 3.8876e-14
5138.89 3.8961e-14
5141.56 3.9427e-14
5144.23 3.9279e-14
5146.91 3.876e-14
5149.58 3.8744e-14
5152.25 3.9558e-14
5154.93 3.9943e-14
5157.6 4.0219e-14
5160.27 3.7823e-14
5162.94 3.7353e-14
5165.62 3.5052e-14
5168.29 3.5304e-14
5170.96 3.3998e-14
5173.64 3.3056e-14
5176.31 3.464e-14
5178.98 3.2435e-14
5181.65 3.4334e-14
5184.33 3.562e-14
5187.0 3.5044e-14
5189.67 3.7535e-14
5192.35 3.9023e-14
5195.02 3.89e-14
5197.69 4.0913e-14
5200.36 3.8897e-14
5203.04 3.9274e-14
5205.71 3.9632e-14
5208.38 3.887e-14
5211.06 4.009e-14
5213.73 3.9672e-14
5216.4 4.1035e-14
5219.08 4.0021e-14
5221.75 3.9247e-14
5224.42 4.0773e-14
5227.09 4.1493e-14
5229.77 3.9919e-14
5232.44 4.1478e-14
5235.11 4.1416e-14
5237.79 4.2427e-14
5240.46 4.246e-14
5243.13 4.1789e-14
5245.8 4.3693e-14
5248.48 4.1575e-14
5251.15 4.2363e-14
5253.82 4.1811e-14
5256.5 4.1551e-14
5259.17 4.2692e-14
5261.84 4.1084e-14
5264.51 3.9928e-14
5267.19 3.7088e-14
5269.86 3.8249e-14
5272.53 3.9504e-14
5275.21 4.0866e-14
5277.88 3.9974e-14
5280.55 4.1327e-14
5283.22 4.213e-14
5285.9 4.2538e-14
5288.57 4.3635e-14
5291.24 4.2304e-14
5293.92 4.2185e-14
5296.59 4.3868e-14
5299.26 4.1593e-14
5301.93 4.219e-14
5304.61 4.5391e-14
5307.28 4.4358e-14
5309.95 4.6172e-14
5312.63 4.3161e-14
5315.3 4.3057e-14
5317.97 4.4518e-14
5320.65 4.2646e-14
5323.32 4.1904e-14
5325.99 4.1429e-14
5328.66 4.1365e-14
5331.34 4.0719e-14
5334.01 3.9775e-14
5336.68 4.0713e-14
5339.36 4.0919e-14
5342.03 4.2669e-14
5344.7 4.436e-14
5347.37 4.2606e-14
5350.05 4.2265e-14
5352.72 4.3281e-14
5355.39 4.443e-14
5358.07 4.5166e-14
5360.74 4.4118e-14
5363.41 4.3814e-14
5366.08 4.4701e-14
5368.76 4.5472e-14
5371.43 4.3111e-14
5374.1 4.2671e-14
5376.78 4.1981e-14
5379.45 4.4524e-14
