# col1 col2
# An Atlas of Galaxy Spectral Energy Distributions from the Ultraviolet to the Mid-Infrared
# Brown et al. (2014)
# http://dx.doi.org/10.5072/03/529D3551F0117
# 
# Column 1 : Restframe Wavelength (Angstrom)
# Column 2 : Flux per unit wavelength (ergs/s/cm^2/Angstrom)
# Column 3 : Observed wavelength (Angstrom)
# Column 4 : Source (0 = model, 1 = Optical Spectrum, 2 = Akari, 3 = Spitzer IRS)
# 
100.09 3.8072e-26
101.95 5.883e-26
104.09 8.2338e-26
106.02 1.1738e-25
107.99 1.6967e-25
110.0 2.8158e-25
114.13 5.1357e-25
117.87 8.7217e-25
120.89 3.6949e-24
125.14 5.789e-24
126.88 7.0081e-24
128.05 7.8271e-24
131.04 1.0224e-23
131.95 1.2607e-23
134.09 1.4812e-23
136.9 2.1558e-23
140.09 2.7265e-23
143.02 7.7732e-23
147.03 2.1311e-22
151.15 2.7454e-22
155.02 3.5449e-22
159.0 4.5772e-22
161.96 5.4651e-22
166.11 6.9599e-22
169.98 8.6219e-22
173.14 1.013e-21
177.17 1.2377e-21
180.05 1.4276e-21
182.14 1.5725e-21
185.95 1.8863e-21
191.16 2.3475e-21
193.82 2.6829e-21
197.88 3.1521e-21
202.02 3.7034e-21
204.83 4.1649e-21
210.09 4.7929e-21
215.97 6.1745e-21
219.99 7.1056e-21
223.05 7.7732e-21
227.19 8.9043e-21
229.82 1.4441e-20
234.1 2.4638e-20
240.1 3.4802e-20
246.26 3.6949e-20
252.0 4.4015e-20
257.27 4.0328e-20
260.25 4.9386e-20
263.87 5.5539e-20
268.78 6.034e-20
273.78 6.4953e-20
278.87 6.9759e-20
284.05 7.544e-20
290.0 7.8271e-20
296.07 8.6021e-20
300.88 8.9454e-20
307.89 9.9221e-20
317.98 1.1392e-19
327.64 1.2665e-19
338.37 1.3887e-19
347.85 1.5052e-19
356.78 1.6353e-19
365.93 1.789e-19
375.31 1.9037e-19
384.94 1.9661e-19
394.82 2.1858e-19
404.94 2.3638e-19
414.38 2.4866e-19
422.08 2.568e-19
429.93 2.6706e-19
440.96 2.8682e-19
451.23 3.0102e-19
459.62 3.1089e-19
470.32 3.2855e-19
480.17 3.5124e-19
490.23 3.6526e-19
500.49 3.9683e-19
506.29 5.8157e-19
512.15 2.0446e-18
520.47 2.2213e-18
530.15 2.4525e-18
540.0 2.4356e-18
550.04 3.8159e-18
560.27 4.8151e-18
569.37 5.7227e-18
579.96 5.6053e-18
589.38 7.3893e-18
600.34 7.9543e-18
610.09 9.9908e-18
620.01 1.1792e-17
630.08 1.3292e-17
640.32 1.3759e-17
650.72 1.6391e-17
658.26 1.8014e-17
664.35 1.9436e-17
675.14 2.0073e-17
684.53 2.0352e-17
695.66 2.7454e-17
705.34 2.6583e-17
716.8 3.3159e-17
726.77 3.5286e-17
735.18 3.7377e-17
745.41 4.3511e-17
755.78 4.749e-17
764.53 5.1476e-17
775.17 5.7227e-17
784.14 6.3038e-17
795.05 6.6773e-17
804.26 7.0893e-17
815.45 7.4405e-17
824.89 8.3292e-17
834.44 6.8802e-17
844.1 9.0075e-17
855.85 9.4103e-17
865.76 1.0294e-16
875.78 1.121e-16
885.92 1.2405e-16
894.12 1.3262e-16
904.47 1.3415e-16
914.95 2.1164e-16
925.54 1.5798e-15
934.11 3.4722e-15
944.92 6.3621e-15
955.86 8.445e-15
964.71 9.3886e-15
975.88 1.5367e-15
984.91 7.3893e-15
994.02 7.936e-15
1005.53 1.1577e-14
1014.84 1.1577e-14
1024.23 5.8966e-15
1036.09 8.8227e-15
1045.67 1.5403e-14
1055.35 1.4744e-14
1065.11 1.1792e-14
1074.97 1.3983e-14
1084.91 1.1497e-14
1094.95 1.4983e-14
1105.09 1.4015e-14
1115.31 1.3602e-14
1125.63 1.1738e-14
1136.05 1.5227e-14
1143.92 1.4048e-14
1154.5 1.4744e-14
1165.19 1.4983e-14
1175.97 9.4973e-15
1184.12 1.4812e-14
1195.08 1.2012e-14
1206.13 8.6021e-15
1214.49 6.6161e-15
1225.73 1.1956e-14
1234.23 1.5762e-14
1245.65 1.6504e-14
1254.28 1.5871e-14
1265.89 1.4983e-14
1274.66 1.7402e-14
1286.46 1.7807e-14
1295.38 1.421e-14
1304.36 1.4744e-14
1316.42 1.7807e-14
1325.55 1.685e-14
1334.74 1.551e-14
1343.99 1.7482e-14
1356.42 1.7163e-14
1365.83 1.5617e-14
1375.29 1.5908e-14
1384.83 1.5944e-14
1394.43 1.2636e-14
1404.09 1.3446e-14
1413.83 1.488e-14
1423.63 1.4983e-14
1433.49 1.5367e-14
1443.43 1.5981e-14
1446.76 1.5981e-14
1453.44 1.5581e-14
1463.51 1.4408e-14
1473.65 1.471e-14
1483.87 1.4812e-14
1494.16 1.488e-14
1504.51 1.3855e-14
1511.46 1.2291e-14
1518.43 1.302e-14
1525.44 1.314e-14
1536.02 1.1288e-14
1546.66 1.1631e-14
1553.8 1.1314e-14
1564.57 1.2039e-14
1575.42 1.293e-14
1586.34 1.3354e-14
1593.66 1.3508e-14
1604.71 1.3571e-14
1615.83 1.3571e-14
1623.29 1.311e-14
1634.54 1.4048e-14
1645.87 1.421e-14
1653.47 1.3633e-14
1664.93 1.4508e-14
1672.61 1.3508e-14
1676.47 1.4846e-14
1684.21 1.5018e-14
1695.88 1.421e-14
1703.71 1.3823e-14
1715.52 1.308e-14
1723.44 1.305e-14
1735.38 1.3855e-14
1743.39 1.3539e-14
1755.48 1.4145e-14
1763.58 1.3477e-14
1775.81 1.3262e-14
1784.0 1.3633e-14
1796.37 1.4309e-14
1804.66 1.4441e-14
1812.99 1.305e-14
1825.56 1.3602e-14
1833.99 1.314e-14
1846.7 1.2039e-14
1855.22 1.2095e-14
1863.78 1.2434e-14
1876.7 1.3415e-14
1885.37 1.2123e-14
1894.07 1.1445e-14
1902.81 1.2491e-14
1916.0 1.1792e-14
1924.84 1.1445e-14
1933.73 1.2123e-14
1947.13 1.2549e-14
1956.12 1.1497e-14
1965.15 1.2665e-14
1974.22 1.317e-14
1983.33 1.2348e-14
1997.08 1.2095e-14
2006.3 1.2607e-14
2015.56 1.232e-14
2024.86 1.29e-14
2034.21 1.1956e-14
2043.6 1.2377e-14
2053.03 1.1902e-14
2067.26 1.2039e-14
2072.03 1.29e-14
2076.81 1.182e-14
2086.39 1.2434e-14
2096.02 1.1765e-14
2105.7 1.2095e-14
2115.42 1.2207e-14
2125.18 1.2405e-14
2134.99 1.1929e-14
2144.84 1.1738e-14
2154.74 1.2263e-14
2164.69 1.2123e-14
2174.68 1.2012e-14
2184.72 1.1711e-14
2194.8 1.2151e-14
2204.93 1.1956e-14
2215.11 1.1631e-14
2225.34 1.1314e-14
2235.61 1.1657e-14
2245.93 1.1495e-14
2256.29 1.1125e-14
2266.71 1.1354e-14
2277.17 1.1454e-14
2282.42 1.1584e-14
2292.96 1.0932e-14
2303.54 1.1131e-14
2314.17 1.0748e-14
2324.85 8.9158e-15
2335.59 1.0209e-14
2346.37 1.0158e-14
2357.2 1.0486e-14
2362.63 1.0105e-14
2373.54 1.0147e-14
2384.49 9.8209e-15
2395.5 1.0115e-14
2406.55 9.8124e-15
2417.66 9.8989e-15
2423.24 1.0151e-14
2434.42 9.8017e-15
2445.66 1.0095e-14
2456.95 1.0044e-14
2462.61 9.9272e-15
2473.98 9.7192e-15
2485.4 9.8274e-15
2496.87 8.9586e-15
2502.63 9.8661e-15
2514.18 9.2459e-15
2519.97 9.5907e-15
2525.78 9.3057e-15
2537.44 9.3015e-15
2543.29 9.1086e-15
2555.03 9.4244e-15
2566.82 9.3122e-15
2572.74 9.5708e-15
2584.61 9.5005e-15
2596.54 9.4307e-15
2602.53 9.2351e-15
2614.54 9.1461e-15
2626.61 9.2689e-15
2632.67 9.3309e-15
2644.82 9.632e-15
2657.03 9.6496e-15
2663.15 9.1496e-15
2675.44 9.3798e-15
2687.79 9.3321e-15
2693.99 9.0339e-15
2706.42 9.0711e-15
2712.66 8.8829e-15
2725.18 8.899e-15
2737.76 9.0808e-15
2744.07 8.4726e-15
2756.74 8.527e-15
2763.09 8.6236e-15
2775.85 8.8403e-15
2782.25 8.6369e-15
2795.09 7.7828e-15
2807.99 8.0894e-15
2814.46 8.7057e-15
2827.46 8.7615e-15
2833.97 8.423e-15
2847.05 8.3993e-15
2853.62 8.301e-15
2866.79 8.5684e-15
2873.4 8.4877e-15
2886.66 8.4637e-15
2893.32 8.3839e-15
2906.67 8.5746e-15
2926.82 8.4113e-15
2947.11 8.2511e-15
2967.53 8.2634e-15
2988.1 8.1998e-15
3008.82 8.1366e-15
3029.67 8.1298e-15
3050.67 8.0485e-15
3071.82 7.9863e-15
3093.11 7.9064e-15
3107.39 7.8474e-15
3128.93 7.7331e-15
3150.62 7.7086e-15
3172.46 7.6312e-15
3187.1 7.4018e-15
3209.19 7.4808e-15
3231.44 7.304e-15
3246.35 7.3841e-15
3268.86 7.3944e-15
3291.51 7.3199e-15
3306.71 7.2651e-15
3321.97 7.5157e-15
3329.63 7.5481e-15
3337.3 7.391e-15
3345.0 7.2371e-15
3352.71 7.3864e-15
3360.44 7.1828e-15
3368.18 7.1971e-15
3375.95 6.9186e-15
3383.73 7.0288e-15
3391.53 7.2568e-15
3399.35 7.4406e-15
3407.18 7.0222e-15
3415.04 7.1012e-15
3422.91 7.3484e-15
3430.8 7.2787e-15
3438.71 7.3099e-15
3446.64 6.9787e-15
3454.58 7.0735e-15
3462.55 6.8311e-15
3470.53 6.9719e-15
3478.53 6.7953e-15
3486.55 6.7931e-15
3494.59 6.9171e-15
3502.64 6.9468e-15
3510.72 6.7552e-15
3518.81 6.7842e-15
3526.92 6.7975e-15
3535.05 6.9376e-15
3543.2 7.0156e-15
3551.37 7.0618e-15
3559.55 6.9466e-15
3567.76 6.9283e-15
3575.99 6.5536e-15
3584.23 6.4467e-15
3592.49 6.4149e-15
3600.77 6.7149e-15
3609.07 6.6205e-15
3617.39 6.6949e-15
3625.73 6.9278e-15
3634.09 6.9095e-15
3642.47 6.939e-15
3650.86 6.7166e-15
3650.96 4.9161e-15
3653.64 7.5574e-15
3656.32 7.717e-15
3658.99 6.6106e-15
3661.67 6.2558e-15
3664.35 6.9717e-15
3667.03 5.7807e-15
3669.7 5.9833e-15
3672.38 6.9993e-15
3675.06 4.9452e-15
3677.74 7.9828e-15
3680.41 8.4256e-15
3683.09 5.6872e-15
3685.77 8.3074e-15
3688.45 7.213e-15
3691.12 6.3149e-15
3693.8 6.5252e-15
3696.48 6.8276e-15
3699.16 6.5121e-15
3701.83 6.1369e-15
3704.51 6.7178e-15
3707.19 6.6983e-15
3709.87 5.4563e-15
3712.54 6.5293e-15
3715.22 6.7574e-15
3717.9 8.5596e-15
3720.58 1.2206e-14
3723.25 2.0924e-14
3725.93 3.295e-14
3728.61 3.6992e-14
3731.29 3.197e-14
3733.96 1.7224e-14
3736.64 1.0428e-14
3739.32 9.3176e-15
3742.0 7.2906e-15
3744.67 7.5222e-15
3747.35 6.8274e-15
3750.03 7.5726e-15
3752.71 8.0622e-15
3755.38 6.469e-15
3758.06 8.2811e-15
3760.74 7.3361e-15
3763.42 7.8607e-15
3766.09 7.707e-15
3768.77 8.3029e-15
3771.45 7.1183e-15
3774.13 6.5466e-15
3776.8 8.2347e-15
3779.48 8.2038e-15
3782.16 9.2274e-15
3784.84 8.1878e-15
3787.51 8.1134e-15
3790.19 8.6993e-15
3792.87 8.4656e-15
3795.55 8.39e-15
3798.22 8.1136e-15
3800.9 7.9059e-15
3803.58 8.7278e-15
3806.26 8.3154e-15
3808.93 9.3701e-15
3811.61 8.6621e-15
3814.29 8.4637e-15
3816.97 9.032e-15
3819.64 8.3355e-15
3822.32 8.1499e-15
3825.0 8.2449e-15
3827.68 7.3536e-15
3830.35 7.4427e-15
3833.03 7.7294e-15
3835.71 8.0921e-15
3838.39 5.7245e-15
3841.06 7.8044e-15
3843.74 7.2671e-15
3846.42 8.5287e-15
3849.1 8.9117e-15
3851.77 8.6702e-15
3854.45 9.2002e-15
3857.13 9.7904e-15
3859.81 9.5631e-15
3862.48 9.7551e-15
3865.16 1.0009e-14
3867.84 9.9674e-15
3870.52 9.723e-15
3873.19 9.6652e-15
3875.87 8.737e-15
3878.55 8.1124e-15
3881.23 8.0598e-15
3883.9 7.7464e-15
3886.58 8.8961e-15
3889.26 9.1512e-15
3891.94 8.62e-15
3894.61 8.3448e-15
3897.29 9.0304e-15
3899.97 8.9654e-15
3902.65 8.7447e-15
3905.32 1.011e-14
3908.0 9.8714e-15
3910.68 8.3862e-15
3913.36 1.0435e-14
3916.03 9.6631e-15
3918.71 9.8864e-15
3921.39 1.0084e-14
3924.07 8.9557e-15
3926.74 8.7044e-15
3929.42 9.6386e-15
3932.1 8.9344e-15
3934.78 8.4498e-15
3937.45 7.9666e-15
3940.13 8.6361e-15
3942.81 9.5297e-15
3945.49 9.3755e-15
3948.16 8.6645e-15
3950.84 8.8552e-15
3953.52 9.6666e-15
3956.2 1.0089e-14
3958.87 8.799e-15
3961.55 8.5243e-15
3964.23 7.9635e-15
3966.91 8.3029e-15
3969.58 8.1191e-15
3972.26 8.1322e-15
3974.94 8.9907e-15
3977.62 8.0004e-15
3980.29 8.4773e-15
3982.97 8.5438e-15
3985.65 9.0343e-15
3988.33 9.2834e-15
3991.0 9.4929e-15
3993.68 9.6175e-15
3996.36 9.8896e-15
3999.04 9.3797e-15
4001.71 8.6549e-15
4004.39 9.3076e-15
4007.07 8.6872e-15
4009.75 9.5027e-15
4012.42 9.9191e-15
4015.1 9.7518e-15
4017.78 9.5176e-15
4020.46 9.7043e-15
4023.13 9.2382e-15
4025.81 9.0889e-15
4028.49 8.8229e-15
4031.17 9.8307e-15
4033.84 9.1283e-15
4036.52 9.669e-15
4039.2 9.3269e-15
4041.88 8.7918e-15
4044.55 9.3723e-15
4047.23 9.1489e-15
4049.91 8.6511e-15
4052.59 9.5692e-15
4055.26 9.8071e-15
4057.94 9.9096e-15
4060.62 9.4389e-15
4063.3 9.5083e-15
4065.97 1.0785e-14
4068.65 1.0327e-14
4071.33 1.0804e-14
4074.01 9.8701e-15
4076.68 1.0415e-14
4079.36 9.1413e-15
4082.04 9.0646e-15
4084.72 9.6426e-15
4087.39 9.3099e-15
4090.07 8.3214e-15
4092.75 8.8274e-15
4095.43 9.4382e-15
4098.1 8.9294e-15
4100.78 9.5599e-15
4103.46 9.8325e-15
4106.14 9.0819e-15
4108.81 8.5799e-15
4111.49 8.9232e-15
4114.17 8.8678e-15
4116.85 8.7535e-15
4119.52 9.1279e-15
4122.2 9.0188e-15
4124.88 9.536e-15
4127.56 9.7777e-15
4130.23 9.2541e-15
4132.91 9.1894e-15
4135.59 9.4747e-15
4138.27 9.8023e-15
4140.94 8.7046e-15
4143.62 9.9396e-15
4146.3 9.0931e-15
4148.98 9.678e-15
4151.65 9.9003e-15
4154.33 9.5226e-15
4157.01 9.5233e-15
4159.69 8.9866e-15
4162.36 9.1448e-15
4165.04 8.9402e-15
4167.72 9.3365e-15
4170.4 9.0487e-15
4173.07 9.117e-15
4175.75 9.4042e-15
4178.43 9.3239e-15
4181.11 9.1089e-15
4183.78 9.1178e-15
4186.46 9.8442e-15
4189.14 9.3508e-15
4191.82 9.005e-15
4194.49 9.3144e-15
4197.17 9.1226e-15
4199.85 8.6386e-15
4202.53 8.9584e-15
4205.2 9.06e-15
4207.88 9.2897e-15
4210.56 9.1776e-15
4213.24 8.8691e-15
4215.91 9.215e-15
4218.59 8.7259e-15
4221.27 9.4284e-15
4223.95 8.13e-15
4226.62 9.2645e-15
4229.3 9.0471e-15
4231.98 8.4846e-15
4234.66 8.961e-15
4237.33 8.8979e-15
4240.01 9.2747e-15
4242.69 8.9961e-15
4245.37 9.5882e-15
4248.04 8.6635e-15
4250.72 9.1282e-15
4253.4 8.9102e-15
4256.08 8.9829e-15
4258.75 8.5634e-15
4261.43 8.5001e-15
4264.11 8.9583e-15
4266.79 8.6233e-15
4269.46 8.8545e-15
4272.14 8.8807e-15
4274.82 9.1475e-15
4277.5 9.1781e-15
4280.17 9.311e-15
4282.85 9.2132e-15
4285.53 8.9398e-15
4288.21 8.6632e-15
4290.88 8.8636e-15
4293.56 8.8681e-15
4296.24 8.0402e-15
4298.92 8.1886e-15
4301.59 7.8355e-15
4304.27 8.01e-15
4306.95 8.4435e-15
4309.63 9.0248e-15
4312.3 8.7596e-15
4314.98 8.8742e-15
4317.66 9.1086e-15
4320.34 8.7271e-15
4323.01 8.7127e-15
4325.69 8.2492e-15
4328.37 8.3908e-15
4331.05 8.2399e-15
4333.72 8.9679e-15
4336.4 1.0148e-14
4339.08 1.203e-14
4341.76 1.239e-14
4344.43 1.1015e-14
4347.11 9.4252e-15
4349.79 8.8846e-15
4352.47 8.3165e-15
4355.14 8.5953e-15
4357.82 8.4884e-15
4360.5 8.3623e-15
4363.18 9.2397e-15
4365.85 9.1477e-15
4368.53 9.0624e-15
4371.21 8.4061e-15
4373.89 8.5587e-15
4376.56 8.3105e-15
4379.24 8.7555e-15
4381.92 8.0547e-15
4384.6 8.55e-15
4387.27 8.4932e-15
4389.95 8.2515e-15
4392.63 9.048e-15
4395.31 8.3852e-15
4397.98 8.4103e-15
4400.66 8.4628e-15
4403.34 8.7174e-15
4406.02 8.2325e-15
4408.69 8.4508e-15
4411.37 7.683e-15
4414.05 8.5855e-15
4416.73 9.4574e-15
4419.4 8.8818e-15
4422.08 8.5023e-15
4424.76 9.2962e-15
4427.44 8.9457e-15
4430.11 8.5697e-15
4432.79 8.7258e-15
4435.47 8.8943e-15
4438.15 9.0659e-15
4440.82 8.6752e-15
4443.5 9.242e-15
4446.18 9.1728e-15
4448.86 9.2145e-15
4451.53 8.9406e-15
4454.21 8.9877e-15
4456.89 8.8757e-15
4459.57 8.5114e-15
4462.24 8.9096e-15
4464.92 8.6191e-15
4467.6 8.7321e-15
4470.28 8.4799e-15
4472.95 9.0841e-15
4475.63 9.0314e-15
4478.31 8.8376e-15
4480.99 9.2551e-15
4483.66 8.6517e-15
4486.34 8.4709e-15
4489.02 8.5587e-15
4491.69 9.2606e-15
4494.37 9.3423e-15
4497.05 9.8199e-15
4499.73 9.0653e-15
4502.4 9.4321e-15
4505.08 9.4658e-15
4507.76 9.7792e-15
4510.44 9.4432e-15
4513.11 9.1166e-15
4515.79 8.6832e-15
4518.47 8.7882e-15
4521.15 8.798e-15
4523.82 8.4039e-15
4526.5 8.2934e-15
4529.18 8.4791e-15
4531.86 8.806e-15
4534.53 9.1318e-15
4537.21 9.4177e-15
4539.89 8.6209e-15
4542.57 8.5782e-15
4545.24 9.1609e-15
4547.92 8.6476e-15
4550.6 8.6441e-15
4553.28 8.7321e-15
4555.95 8.7931e-15
4558.63 9.131e-15
4561.31 9.2068e-15
4563.99 9.1897e-15
4566.66 9.005e-15
4569.34 8.5404e-15
4572.02 8.6189e-15
4574.7 9.1146e-15
4577.37 9.3071e-15
4580.05 8.9154e-15
4582.73 8.8381e-15
4585.41 8.2977e-15
4588.08 8.4786e-15
4590.76 8.6877e-15
4593.44 8.8644e-15
4596.12 8.5209e-15
4598.79 9.2833e-15
4601.47 9.2379e-15
4604.15 8.6238e-15
4606.83 9.3598e-15
4609.5 9.2184e-15
4612.18 8.7837e-15
4614.86 9.584e-15
4617.54 9.1438e-15
4620.21 9.6175e-15
4622.89 9.5818e-15
4625.57 9.4105e-15
4628.25 9.6537e-15
4630.92 9.2856e-15
4633.6 8.9804e-15
4636.28 8.6982e-15
4638.96 8.6601e-15
4641.63 9.1808e-15
4644.31 9.115e-15
4646.99 9.4076e-15
4649.67 9.2485e-15
4652.34 8.7956e-15
4655.02 9.3537e-15
4657.7 8.8559e-15
4660.38 8.6583e-15
4663.05 8.732e-15
4665.73 8.7429e-15
4668.41 9.3944e-15
4671.09 8.9837e-15
4673.76 8.7747e-15
4676.44 8.6164e-15
4679.12 8.9661e-15
4681.8 9.2569e-15
4684.47 9.4016e-15
4687.15 8.7464e-15
4689.83 8.8745e-15
4692.51 9.0648e-15
4695.18 8.8489e-15
4697.86 9.113e-15
4700.54 8.2509e-15
4703.22 9.1135e-15
4705.89 8.2331e-15
4708.57 8.2873e-15
4711.25 8.2894e-15
4713.93 8.4191e-15
4716.6 8.4481e-15
4719.28 8.6464e-15
4721.96 8.4775e-15
4724.64 8.152e-15
4727.31 8.0085e-15
4729.99 8.3041e-15
4732.67 8.1397e-15
4735.35 8.5182e-15
4738.02 8.8799e-15
4740.7 8.3437e-15
4743.38 8.8305e-15
4746.06 8.2572e-15
4748.73 9.1565e-15
4751.41 8.5008e-15
4754.09 8.182e-15
4756.77 8.6628e-15
4759.44 8.6342e-15
4762.12 8.0536e-15
4764.8 8.3454e-15
4767.48 8.2288e-15
4770.15 8.1664e-15
4772.83 7.9487e-15
4775.51 8.6529e-15
4778.19 8.6813e-15
4780.86 8.7303e-15
4783.54 7.9191e-15
4786.22 8.5243e-15
4788.9 8.4466e-15
4791.57 8.2711e-15
4794.25 8.8518e-15
4796.93 8.7966e-15
4799.61 8.4794e-15
4802.28 8.3522e-15
4804.96 8.1389e-15
4807.64 8.3256e-15
4810.32 8.8147e-15
4812.99 7.9932e-15
4815.67 8.2053e-15
4818.35 9.029e-15
4821.03 8.4658e-15
4823.7 8.413e-15
4826.38 8.8385e-15
4829.06 7.7481e-15
4831.74 8.5109e-15
4834.41 7.9958e-15
4837.09 7.6004e-15
4839.77 8.2188e-15
4842.45 8.1892e-15
4845.12 7.7442e-15
4847.8 8.6244e-15
4850.48 7.7585e-15
4853.16 9.165e-15
4855.83 1.1257e-14
4858.51 1.6162e-14
4861.19 2.0275e-14
4863.87 2.0224e-14
4866.54 1.491e-14
4869.22 1.0688e-14
4871.9 8.2771e-15
4874.58 8.0061e-15
4877.25 7.9796e-15
4879.93 7.5401e-15
4882.61 7.934e-15
4885.29 7.9585e-15
4887.96 7.5903e-15
4890.64 8.274e-15
4893.32 7.9855e-15
4896.0 7.8913e-15
4898.67 8.6007e-15
4901.35 8.5049e-15
4904.03 8.3383e-15
4906.71 7.66e-15
4909.38 7.5272e-15
4912.06 8.2581e-15
4914.74 8.2533e-15
4917.42 8.1168e-15
4920.09 7.9388e-15
4922.77 7.455e-15
4925.45 8.0805e-15
4928.13 7.902e-15
4930.8 8.0391e-15
4933.48 8.305e-15
4936.16 8.2694e-15
4938.84 8.2398e-15
4941.51 7.8696e-15
4944.19 8.1231e-15
4946.87 8.4943e-15
4949.55 9.0166e-15
4952.22 8.7732e-15
4954.9 1.0465e-14
4957.58 1.1983e-14
4960.26 1.2559e-14
4962.93 1.1094e-14
4965.61 9.6351e-15
4968.29 8.0947e-15
4970.97 8.2255e-15
4973.64 7.7538e-15
4976.32 8.0358e-15
4979.0 8.2109e-15
4981.68 8.177e-15
4984.35 8.4007e-15
4987.03 8.1784e-15
4989.71 7.8464e-15
4992.39 8.6161e-15
4995.06 8.0717e-15
4997.74 8.8825e-15
5000.42 1.0724e-14
5003.1 1.5293e-14
5005.77 2.0125e-14
5008.45 2.116e-14
5011.13 1.6376e-14
5013.81 1.2114e-14
5016.48 9.712e-15
5019.16 8.3114e-15
5021.84 8.1112e-15
5024.52 8.2985e-15
5027.19 7.7945e-15
5029.87 8.3765e-15
5032.55 7.7446e-15
5035.23 8.388e-15
5037.9 8.7344e-15
5040.58 7.9278e-15
5043.26 8.0185e-15
5045.94 7.9437e-15
5048.61 8.0922e-15
5051.29 7.9431e-15
5053.97 8.8468e-15
5056.65 8.4146e-15
5059.32 8.051e-15
5062.0 7.778e-15
5064.68 8.8029e-15
5067.36 7.9407e-15
5070.03 7.8895e-15
5072.71 7.8426e-15
5075.39 7.8691e-15
5078.07 7.9691e-15
5080.74 7.4734e-15
5083.42 7.756e-15
5086.1 8.424e-15
5088.78 7.5274e-15
5091.45 8.1271e-15
5094.13 7.7612e-15
5096.81 7.9603e-15
5099.49 8.1808e-15
5102.16 8.3356e-15
5104.84 7.9171e-15
5107.52 7.4796e-15
5110.2 7.9795e-15
5112.87 7.578e-15
5115.55 7.917e-15
5118.23 7.5254e-15
5120.91 7.8195e-15
5123.58 7.9372e-15
5126.26 7.4833e-15
5128.94 7.3459e-15
5131.62 7.8884e-15
5134.29 8.2178e-15
5136.97 7.9709e-15
5139.65 7.864e-15
5142.33 7.6631e-15
5145.0 7.5902e-15
5147.68 7.7137e-15
5150.36 7.827e-15
5153.04 7.8157e-15
5155.71 7.8651e-15
5158.39 7.7726e-15
5161.07 8.5136e-15
5163.75 7.9289e-15
5166.42 7.826e-15
5169.1 7.6197e-15
5171.78 6.8395e-15
5174.46 7.2972e-15
5177.13 7.686e-15
5179.81 6.978e-15
5182.49 7.1372e-15
5185.17 7.4587e-15
5187.84 7.8067e-15
5190.52 7.6494e-15
5193.2 7.6617e-15
5195.88 8.3721e-15
5198.55 7.9999e-15
5201.23 8.2923e-15
5203.91 8.5348e-15
5206.59 7.3704e-15
5209.26 7.4627e-15
5211.94 8.3817e-15
5214.62 7.4401e-15
5217.3 7.7702e-15
5219.97 7.9136e-15
5222.65 8.0287e-15
5225.33 7.977e-15
5228.01 7.8834e-15
5230.68 7.1671e-15
5233.36 7.8645e-15
5236.04 7.8268e-15
5238.72 7.4927e-15
5241.39 7.5737e-15
5244.07 8.1238e-15
5246.75 7.5272e-15
5249.43 7.2796e-15
5252.1 7.6186e-15
5254.78 6.988e-15
5257.46 7.4626e-15
5260.14 7.2508e-15
5262.81 7.574e-15
5265.49 6.9769e-15
5268.17 7.6259e-15
5270.85 7.5324e-15
5273.52 7.6437e-15
5276.2 7.0963e-15
5278.88 7.6903e-15
5281.56 7.1746e-15
5284.23 7.7536e-15
5286.91 7.4969e-15
5289.59 7.812e-15
5292.27 7.6279e-15
5294.94 8.148e-15
5297.62 8.0311e-15
5300.3 7.7022e-15
5302.98 7.8708e-15
5305.65 7.8899e-15
5308.33 7.7287e-15
5311.01 6.9776e-15
5313.69 8.1445e-15
5316.36 8.0123e-15
5319.04 7.4704e-15
5321.72 7.6701e-15
5324.4 7.8275e-15
5327.07 7.5556e-15
5329.75 7.3859e-15
5332.43 7.6019e-15
5335.11 7.1695e-15
5337.78 8.0384e-15
5340.46 7.4135e-15
5343.14 7.1574e-15
5345.82 7.2044e-15
5348.49 7.7626e-15
5351.17 7.1972e-15
5353.85 7.741e-15
5356.53 8.0942e-15
5359.2 8.2695e-15
5361.88 8.2244e-15
5364.56 7.8684e-15
5367.24 7.4163e-15
5369.91 7.5319e-15
5372.59 7.29e-15
5375.27 8.0432e-15
5377.95 7.7674e-15
5380.62 7.8396e-15
5383.3 7.9293e-15
5385.98 8.0639e-15
5388.66 7.6804e-15
5391.33 7.1757e-15
5394.01 7.2615e-15
5396.69 7.3627e-15
5399.37 7.6504e-15
5402.04 7.1501e-15
5404.72 7.6968e-15
5407.4 7.9839e-15
5410.08 7.8585e-15
5412.75 8.0899e-15
5415.43 7.5884e-15
5418.11 8.1538e-15
5420.79 7.1662e-15
5423.46 7.8793e-15
5426.14 7.5463e-15
