# col1 col2
# An Atlas of Galaxy Spectral Energy Distributions from the Ultraviolet to the Mid-Infrared
# Brown et al. (2014)
# http://dx.doi.org/10.5072/03/529D3551F0117
# 
# Column 1 : Restframe Wavelength (Angstrom)
# Column 2 : Flux per unit wavelength (ergs/s/cm^2/Angstrom)
# Column 3 : Observed wavelength (Angstrom)
# Column 4 : Source (0 = model, 1 = Optical Spectrum, 2 = Akari, 3 = Spitzer IRS)
# 
102.05 7.9199e-35
103.94 1.4646e-34
106.12 2.7398e-34
108.09 5.1608e-34
110.1 1.111e-33
113.97 3.3092e-33
117.98 8.9067e-33
121.0 5.1253e-32
124.97 1.2266e-31
127.0 1.8227e-31
127.88 2.2528e-31
130.86 3.942e-31
132.07 5.3176e-31
133.9 7.546e-31
137.02 1.4346e-30
139.89 2.3535e-30
143.15 8.2931e-30
147.16 3.018e-29
150.94 5.3054e-29
155.17 9.241e-29
159.15 1.5839e-28
162.1 2.3266e-28
165.88 3.8612e-28
170.14 6.1619e-28
172.9 8.704e-28
176.93 1.3481e-27
179.8 1.8481e-27
181.88 2.2736e-27
186.12 3.394e-27
190.9 5.4918e-27
194.0 7.3066e-27
198.06 1.044e-26
202.21 1.4816e-26
205.02 1.9086e-26
209.79 2.7524e-26
216.17 4.5679e-26
220.19 6.1904e-26
223.25 7.6158e-26
226.88 1.0179e-25
230.04 1.8438e-25
233.77 3.6452e-25
239.77 6.4079e-25
245.92 8.3506e-25
252.23 1.207e-24
256.92 1.2874e-24
259.89 1.7407e-24
264.12 2.2066e-24
269.03 2.7715e-24
274.03 3.4413e-24
279.12 4.2337e-24
284.31 5.2086e-24
290.27 6.32e-24
295.66 8.0486e-24
301.16 9.3911e-24
308.17 1.2295e-23
318.27 1.7649e-23
327.94 2.425e-23
337.91 3.2338e-23
348.17 4.2434e-23
357.1 5.429e-23
366.26 6.9457e-23
374.8 8.5846e-23
385.3 1.0369e-22
395.18 1.3419e-22
405.32 1.6739e-22
413.8 1.9894e-22
422.47 2.2841e-22
430.32 2.6225e-22
441.36 3.219e-22
450.6 3.7907e-22
460.04 4.3223e-22
469.67 5.0317e-22
479.51 5.9118e-22
489.55 6.6791e-22
499.8 7.8473e-22
505.59 9.1352e-22
511.44 1.6893e-21
519.75 1.9218e-21
529.41 2.2373e-21
540.5 2.4195e-21
550.55 3.5052e-21
559.49 4.5679e-21
569.89 5.6718e-21
580.49 6.0495e-21
589.92 8.0857e-21
599.51 9.1985e-21
610.65 1.1687e-20
620.58 1.4781e-20
630.66 1.7487e-20
639.43 1.9396e-20
649.82 2.4028e-20
657.35 2.7398e-20
664.96 3.0812e-20
675.76 3.394e-20
685.16 3.6368e-20
694.7 5.055e-20
704.36 5.1966e-20
715.8 6.7876e-20
725.76 7.5983e-20
734.17 8.4279e-20
744.38 1.0226e-19
754.74 1.1661e-19
765.23 1.3235e-19
775.88 1.5407e-19
784.86 1.773e-19
795.78 1.9666e-19
805.0 2.1813e-19
814.32 2.3973e-19
825.65 2.7907e-19
835.21 2.4531e-19
844.88 3.294e-19
854.66 3.5952e-19
864.56 4.0805e-19
874.57 4.6208e-19
884.7 5.2932e-19
894.94 5.8711e-19
905.3 6.1904e-19
915.79 1.0226e-18
924.26 7.6863e-18
934.96 1.8018e-17
945.79 3.6704e-17
954.54 5.454e-17
965.59 6.5271e-17
974.53 1.1008e-17
985.81 6.219e-17
994.94 6.8033e-17
1004.14 1.0179e-16
1015.77 1.0086e-16
1025.17 4.3623e-17
1034.65 7.6334e-17
1044.23 1.5231e-16
1053.89 1.555e-16
1066.09 1.2845e-16
1075.96 1.5839e-16
1085.91 1.3053e-16
1095.96 1.7812e-16
1106.1 1.773e-16
1113.77 1.769e-16
1124.07 1.6471e-16
1134.47 2.1464e-16
1144.97 2.0124e-16
1155.57 2.2066e-16
1166.26 2.3535e-16
1174.34 1.7011e-16
1185.21 2.4195e-16
1196.18 1.7089e-16
1204.47 1.2668e-16
1215.61 8.2171e-17
1224.04 1.8018e-16
1235.36 2.8361e-16
1243.93 3.2264e-16
1255.44 3.1748e-16
1264.14 2.7972e-16
1275.84 3.7129e-16
1284.68 3.9969e-16
1293.58 3.2638e-16
1305.55 3.3015e-16
1314.6 4.2239e-16
1323.72 4.1468e-16
1335.96 3.7733e-16
1345.22 4.5784e-16
1354.55 4.5365e-16
1363.94 4.166e-16
1376.56 4.4742e-16
1386.1 4.6315e-16
1395.71 4.1564e-16
1405.38 4.423e-16
1415.12 4.5996e-16
1424.93 4.8163e-16
1434.81 4.8833e-16
1441.43 5.2326e-16
1448.09 5.3668e-16
1454.77 5.3176e-16
1464.86 5.0086e-16
1475.01 5.09e-16
1485.23 5.281e-16
1495.53 5.4792e-16
1505.9 5.3054e-16
1512.85 4.7942e-16
1516.33 5.1846e-16
1523.33 5.1017e-16
1533.89 4.5469e-16
1544.52 5.1135e-16
1555.23 4.9059e-16
1566.01 5.0666e-16
1573.24 5.5045e-16
1584.14 5.8576e-16
1595.13 6.1055e-16
1606.18 6.0634e-16
1613.6 6.1904e-16
1624.78 5.9528e-16
1636.04 6.4375e-16
1643.59 6.6484e-16
1654.99 6.219e-16
1666.46 6.9298e-16
1670.3 6.2477e-16
1678.01 7.0749e-16
1685.76 7.4768e-16
1693.54 7.1239e-16
1705.28 6.9457e-16
1713.15 6.7099e-16
1725.02 6.772e-16
1736.98 7.3235e-16
1745.0 7.2563e-16
1753.05 7.8473e-16
1765.2 7.2731e-16
1773.35 7.5983e-16
1785.64 7.8292e-16
1793.89 8.4473e-16
1806.32 8.4863e-16
1814.66 7.9748e-16
1823.03 8.236e-16
1835.67 8.03e-16
1844.14 7.4768e-16
1856.93 7.6158e-16
1865.5 7.9381e-16
1874.11 8.684e-16
1887.1 8.123e-16
1895.81 7.8835e-16
1904.56 8.4473e-16
1913.35 8.255e-16
1926.61 8.2171e-16
1935.51 8.5255e-16
1944.44 9.0099e-16
1953.42 8.5648e-16
1966.96 9.4562e-16
1976.04 9.7885e-16
1985.16 9.348e-16
1994.32 9.1985e-16
2003.52 9.5437e-16
2012.77 9.348e-16
2026.73 9.8564e-16
2036.08 9.478e-16
2045.48 9.9476e-16
2054.92 9.632e-16
2064.4 9.7885e-16
2073.93 1.0513e-15
2078.71 1.0063e-15
2083.51 1.0464e-15
2093.12 1.0017e-15
2102.79 1.0203e-15
2117.36 1.0392e-15
2127.13 1.0659e-15
2136.95 1.004e-15
2146.82 1.0369e-15
2156.73 1.0832e-15
2166.68 1.061e-15
2176.68 1.061e-15
2186.73 1.0537e-15
2196.82 1.1136e-15
2206.96 1.0933e-15
2217.15 1.0542e-15
2227.38 1.0306e-15
2232.52 1.1071e-15
2242.82 1.0699e-15
2253.17 1.0436e-15
2263.57 1.0733e-15
2274.02 1.1115e-15
2284.52 1.1458e-15
2295.06 1.0947e-15
2305.66 1.1053e-15
2316.3 1.0707e-15
2326.99 8.6664e-16
2332.36 1.0231e-15
2343.12 1.0003e-15
2353.94 1.0822e-15
2364.8 1.0128e-15
2375.72 1.0512e-15
2386.68 9.883e-16
2397.7 1.0595e-15
2403.23 1.0261e-15
2414.32 1.0553e-15
2425.46 1.1158e-15
2436.66 1.0808e-15
2442.28 1.1451e-15
2453.55 1.1352e-15
2464.87 1.1383e-15
2476.25 1.1103e-15
2487.68 1.1525e-15
2493.42 1.0959e-15
2504.93 1.2133e-15
2510.7 1.1093e-15
2516.49 1.1433e-15
2522.29 1.0997e-15
2533.93 1.1155e-15
2545.63 1.1058e-15
2557.38 1.18e-15
2563.27 1.1667e-15
2575.1 1.2336e-15
2586.99 1.2342e-15
2592.95 1.2288e-15
2604.92 1.1987e-15
2616.95 1.1937e-15
2622.98 1.2446e-15
2635.09 1.2742e-15
2647.25 1.3723e-15
2653.35 1.3917e-15
2665.6 1.3024e-15
2677.9 1.3582e-15
2684.08 1.3617e-15
2696.46 1.3191e-15
2702.68 1.3533e-15
2715.16 1.311e-15
2727.69 1.3177e-15
2733.98 1.3834e-15
2746.6 1.2421e-15
2752.93 1.2684e-15
2765.63 1.3137e-15
2772.01 1.3728e-15
2784.81 1.3299e-15
2797.66 1.1118e-15
2804.11 1.1917e-15
2817.05 1.4008e-15
2823.55 1.4471e-15
2836.58 1.4051e-15
2843.12 1.3862e-15
2856.24 1.3648e-15
2862.82 1.4594e-15
2876.04 1.4534e-15
2882.67 1.4673e-15
2895.98 1.4579e-15
2909.34 1.5594e-15
2929.51 1.5322e-15
2949.81 1.5264e-15
2970.26 1.5596e-15
2990.85 1.5753e-15
3011.58 1.6059e-15
3032.46 1.6184e-15
3053.48 1.6272e-15
3067.57 1.6432e-15
3088.84 1.6636e-15
3110.25 1.6688e-15
3131.81 1.6664e-15
3153.51 1.691e-15
3168.07 1.6998e-15
3190.03 1.6549e-15
3212.14 1.7067e-15
3226.97 1.6727e-15
3249.34 1.741e-15
3271.86 1.7872e-15
3286.96 1.7965e-15
3309.75 1.8064e-15
3325.02 1.8242e-15
3332.69 1.829e-15
3340.37 1.7552e-15
3348.07 1.8813e-15
3355.79 1.8013e-15
3363.53 1.7327e-15
3371.28 1.7293e-15
3379.05 1.8407e-15
3386.84 1.8455e-15
3394.65 1.8675e-15
3402.47 1.9248e-15
3410.32 1.8093e-15
3418.18 1.8435e-15
3426.06 1.887e-15
3433.96 1.9449e-15
3441.87 1.8924e-15
3449.81 1.867e-15
3457.76 1.8462e-15
3465.73 1.813e-15
3473.72 1.9122e-15
3481.73 1.8478e-15
3489.75 1.9265e-15
3497.8 1.8746e-15
3505.86 1.9056e-15
3513.94 1.8757e-15
3522.04 1.9511e-15
3530.16 1.8898e-15
3538.3 1.9613e-15
3546.46 1.9892e-15
3554.63 2.0082e-15
3562.83 1.9903e-15
3571.04 1.9101e-15
3579.27 1.8715e-15
3587.52 1.8043e-15
3594.13 2.6213e-15
3596.76 1.5844e-15
3599.4 1.3979e-15
3602.04 2.3314e-15
3604.67 3.8356e-15
3607.31 1.9164e-15
3609.95 9.6658e-16
3612.59 -7.3802e-16
3615.22 3.9849e-16
3617.86 2.8172e-15
3620.5 1.4052e-15
3623.13 9.3875e-16
3625.77 4.8494e-16
3628.41 2.9272e-15
3631.04 2.3764e-15
3633.68 2.667e-15
3636.32 1.2069e-15
3638.96 3.2213e-15
3641.59 3.0684e-15
3644.23 6.9967e-16
3646.87 2.3069e-15
3649.5 2.0374e-16
3652.14 5.3827e-16
3654.78 3.395e-15
3657.42 2.5164e-15
3660.05 1.3259e-15
3662.69 3.0006e-15
3665.33 -4.2684e-16
3667.96 2.1501e-15
3670.6 6.7353e-16
3673.24 1.2622e-15
3675.88 1.4435e-15
3678.51 2.323e-15
3681.15 1.2767e-15
3683.79 1.0735e-15
3686.42 2.0043e-15
3689.06 1.5096e-15
3691.7 1.6093e-15
3694.34 3.9999e-15
3696.97 3.1966e-16
3699.61 2.3056e-15
3702.25 1.2876e-15
3704.88 1.8265e-15
3707.52 2.1032e-15
3710.16 7.9521e-16
3712.8 3.3233e-15
3715.43 1.9666e-15
3718.07 2.6373e-15
3720.71 8.5488e-16
3723.34 1.1617e-15
3725.98 3.8219e-15
3728.62 4.1385e-15
3731.25 8.0283e-15
3733.89 5.5521e-15
3736.53 3.4991e-15
3739.17 2.3696e-15
3741.8 2.5938e-15
3744.44 3.6659e-15
3747.08 2.2135e-15
3749.71 2.5688e-15
3752.35 2.0306e-15
3754.99 9.7267e-16
3757.63 4.9083e-15
3760.26 3.11e-15
3762.9 3.7851e-15
3765.54 2.7505e-15
3768.17 1.8252e-15
3770.81 7.8642e-16
3773.45 2.423e-15
3776.09 2.0616e-15
3778.72 2.5477e-15
3781.36 2.0999e-15
3784.0 2.8143e-15
3786.63 4.2158e-15
3789.27 1.3178e-15
3791.91 2.1441e-15
3794.55 2.2463e-15
3797.18 2.0913e-15
3799.82 8.142e-16
3802.46 2.066e-15
3805.09 1.6386e-15
3807.73 2.1674e-15
3810.37 2.6942e-15
3813.01 2.8921e-15
3815.64 4.6961e-15
3818.28 3.0632e-15
3820.92 2.6696e-15
3823.55 2.1793e-15
3826.19 1.2759e-15
3828.83 2.1527e-15
3831.46 3.321e-15
3834.1 2.1412e-15
3836.74 1.6636e-15
3839.38 8.8066e-16
3842.01 1.8713e-15
3844.65 1.3033e-15
3847.29 2.8604e-15
3849.92 3.9643e-15
3852.56 2.2786e-15
3855.2 3.3976e-15
3857.84 2.3488e-15
3860.47 3.3505e-15
3863.11 3.798e-15
3865.75 3.1861e-15
3868.38 2.7057e-15
3871.02 3.2644e-15
3873.66 3.3585e-15
3876.3 3.9519e-15
3878.93 3.2036e-15
3881.57 3.3627e-15
3884.21 1.5808e-15
3886.84 2.0685e-15
3889.48 1.7238e-15
3892.12 9.1529e-16
3894.76 2.4865e-15
3897.39 3.228e-15
3900.03 2.0995e-15
3902.67 3.3242e-15
3905.3 2.9455e-15
3907.94 4.0704e-15
3910.58 3.0648e-15
3913.22 4.4849e-15
3915.85 2.8338e-15
3918.49 2.5544e-15
3921.13 2.7108e-15
3923.76 3.7164e-15
3926.4 3.9586e-15
3929.04 3.3866e-15
3931.68 2.757e-15
3934.31 2.5621e-15
3936.95 2.4292e-15
3939.59 2.9913e-15
3942.22 2.889e-15
3944.86 2.7107e-15
3947.5 2.9323e-15
3950.13 3.0975e-15
3952.77 2.9312e-15
3955.41 2.8759e-15
3958.05 4.0677e-15
3960.68 3.3472e-15
3963.32 3.4903e-15
3965.96 3.38e-15
3968.59 1.9946e-15
3971.23 2.2341e-15
3973.87 1.5402e-15
3976.51 1.3763e-15
3979.14 2.2025e-15
3981.78 2.7868e-15
3984.42 3.2931e-15
3987.05 3.5205e-15
3989.69 3.3132e-15
3992.33 3.2342e-15
3994.97 2.9799e-15
3997.6 3.1992e-15
4000.24 3.0159e-15
4002.88 3.0724e-15
4005.51 3.3445e-15
4008.15 3.385e-15
4010.79 2.6266e-15
4013.43 3.2551e-15
4016.06 3.3028e-15
4018.7 4.1346e-15
4021.34 4.381e-15
4023.97 4.5278e-15
4026.61 4.8763e-15
4029.25 4.0316e-15
4031.89 3.568e-15
4034.52 3.7604e-15
4037.16 4.521e-15
4039.8 3.8387e-15
4042.43 3.8633e-15
4045.07 4.5204e-15
4047.71 4.4234e-15
4050.34 4.3319e-15
4052.98 3.3431e-15
4055.62 3.6919e-15
4058.26 4.043e-15
4060.89 4.4692e-15
4063.53 4.445e-15
4066.17 3.7899e-15
4068.8 4.0954e-15
4071.44 4.7785e-15
4074.08 4.2527e-15
4076.72 3.9708e-15
4079.35 3.4595e-15
4081.99 3.5802e-15
4084.63 3.4356e-15
4087.26 3.4918e-15
4089.9 3.7522e-15
4092.54 3.2811e-15
4095.18 4.4253e-15
4097.81 2.846e-15
4100.45 3.6743e-15
4103.09 3.5398e-15
4105.72 2.633e-15
4108.36 2.0453e-15
4111.0 2.8034e-15
4113.64 2.72e-15
4116.27 2.8236e-15
4118.91 2.7484e-15
4121.55 3.2098e-15
4124.18 3.0849e-15
4126.82 3.0255e-15
4129.46 3.4993e-15
4132.1 4.3218e-15
4134.73 3.999e-15
4137.37 3.3165e-15
4140.01 4.1094e-15
4142.64 3.465e-15
4145.28 3.1762e-15
4147.92 3.3913e-15
4150.55 4.6358e-15
4153.19 3.8678e-15
4155.83 4.1371e-15
4158.47 3.6926e-15
4161.1 4.0246e-15
4163.74 4.6162e-15
4166.38 3.2462e-15
4169.01 2.9037e-15
4171.65 2.9552e-15
4174.29 3.1463e-15
4176.93 5.1268e-15
4179.56 4.4208e-15
4182.2 7.0559e-15
4184.84 3.7928e-15
4187.47 4.903e-15
4190.11 4.4785e-15
4192.75 3.9953e-15
4195.39 4.0885e-15
4198.02 3.6245e-15
4200.66 4.3537e-15
4203.3 4.2535e-15
4205.93 4.0972e-15
4208.57 3.5823e-15
4211.21 4.0539e-15
4213.85 3.764e-15
4216.48 3.9961e-15
4219.12 3.7701e-15
4221.76 4.8471e-15
4224.39 4.744e-15
4227.03 4.8376e-15
4229.67 4.5455e-15
4232.31 3.7385e-15
4234.94 3.4024e-15
4237.58 3.5151e-15
4240.22 4.1607e-15
4242.85 3.5384e-15
4245.49 5.0018e-15
4248.13 4.2839e-15
4250.76 3.044e-15
4253.4 3.9565e-15
4256.04 3.8765e-15
4258.68 4.3034e-15
4261.31 3.9724e-15
4263.95 5.0123e-15
4266.59 3.4095e-15
4269.22 3.2321e-15
4271.86 4.0754e-15
4274.5 4.5331e-15
4277.14 2.7703e-15
4279.77 3.8485e-15
4282.41 4.192e-15
4285.05 3.7369e-15
4287.68 4.2175e-15
4290.32 4.4265e-15
4292.96 3.2907e-15
4295.6 3.4228e-15
4298.23 3.2956e-15
4300.87 5.1095e-15
4303.51 4.1395e-15
4306.14 3.8385e-15
4308.78 3.4517e-15
4311.42 3.4522e-15
4314.06 3.1149e-15
4316.69 3.482e-15
4319.33 4.2681e-15
4321.97 4.1723e-15
4324.6 4.2633e-15
4327.24 3.1623e-15
4329.88 3.3292e-15
4332.52 3.0923e-15
4335.15 3.2726e-15
4337.79 3.128e-15
4340.43 2.7958e-15
4343.06 3.0467e-15
4345.7 2.4985e-15
4348.34 2.9224e-15
4350.97 3.2563e-15
4353.61 3.0256e-15
4356.25 3.6159e-15
4358.89 4.4405e-15
4361.52 4.3968e-15
4364.16 4.0558e-15
4366.8 4.2341e-15
4369.43 3.4517e-15
4372.07 3.9802e-15
4374.71 4.7941e-15
4377.35 4.1681e-15
4379.98 3.5559e-15
4382.62 3.278e-15
4385.26 3.4264e-15
4387.89 4.0965e-15
4390.53 4.1502e-15
4393.17 3.7347e-15
4395.81 3.2253e-15
4398.44 3.7615e-15
4401.08 4.2966e-15
4403.72 4.262e-15
4406.35 3.9944e-15
4408.99 3.5601e-15
4411.63 3.679e-15
4414.27 4.1339e-15
4416.9 4.5903e-15
4419.54 4.5747e-15
4422.18 4.0231e-15
4424.81 3.8368e-15
4427.45 3.814e-15
4430.09 3.7523e-15
4432.73 3.4257e-15
4435.36 3.5635e-15
4438.0 3.8696e-15
4440.64 3.8958e-15
4443.27 3.8665e-15
4445.91 4.2058e-15
4448.55 4.1193e-15
4451.19 4.6019e-15
4453.82 4.7191e-15
4456.46 4.0574e-15
4459.1 3.8377e-15
4461.73 4.607e-15
4464.37 3.7719e-15
4467.01 4.0939e-15
4469.64 3.8609e-15
4472.28 4.7093e-15
4474.92 4.5907e-15
4477.56 3.9323e-15
4480.19 3.77e-15
4482.83 3.7691e-15
4485.47 4.1704e-15
4488.1 4.2968e-15
4490.74 4.3009e-15
4493.38 4.2413e-15
4496.02 4.4727e-15
4498.65 4.8871e-15
4501.29 4.4646e-15
4503.93 4.1359e-15
4506.56 4.4179e-15
4509.2 4.7685e-15
4511.84 4.1294e-15
4514.48 3.6921e-15
4517.11 4.1213e-15
4519.75 4.6495e-15
4522.39 4.5731e-15
4525.02 4.0208e-15
4527.66 4.2276e-15
4530.3 4.471e-15
4532.94 4.0879e-15
4535.57 3.9755e-15
4538.21 4.6432e-15
4540.85 4.4838e-15
4543.48 3.6248e-15
4546.12 3.9261e-15
4548.76 4.3657e-15
4551.4 4.1754e-15
4554.03 4.3326e-15
4556.67 4.7613e-15
4559.31 4.6495e-15
4561.94 4.99e-15
4564.58 5.013e-15
4567.22 4.4115e-15
4569.85 4.3402e-15
4572.49 4.5068e-15
4575.13 4.6291e-15
4577.77 4.2884e-15
4580.4 4.6888e-15
4583.04 4.9337e-15
4585.68 4.5489e-15
4588.31 4.4491e-15
4590.95 5.0494e-15
4593.59 4.5281e-15
4596.23 4.7503e-15
4598.86 4.7553e-15
4601.5 4.3114e-15
4604.14 4.4055e-15
4606.77 4.436e-15
4609.41 4.4402e-15
4612.05 4.7309e-15
4614.69 4.5456e-15
4617.32 4.4116e-15
4619.96 4.3126e-15
4622.6 4.7635e-15
4625.23 4.7087e-15
4627.87 4.467e-15
4630.51 4.5704e-15
4633.15 4.2794e-15
4635.78 4.5624e-15
4638.42 4.7154e-15
4641.06 4.3925e-15
4643.69 4.0847e-15
4646.33 3.8989e-15
4648.97 3.7936e-15
4651.61 3.9491e-15
4654.24 4.152e-15
4656.88 4.0921e-15
4659.52 3.6718e-15
4662.15 4.1354e-15
4664.79 4.3034e-15
4667.43 4.183e-15
4670.06 4.0791e-15
4672.7 4.1293e-15
4675.34 4.0427e-15
4677.98 4.1166e-15
4680.61 4.6129e-15
4683.25 4.0866e-15
4685.89 4.1466e-15
4688.52 4.6824e-15
4691.16 4.1262e-15
4693.8 4.314e-15
4696.44 4.142e-15
4699.07 4.3136e-15
4701.71 4.1596e-15
4704.35 4.1037e-15
4706.98 4.6225e-15
4709.62 4.5782e-15
4712.26 4.3883e-15
4714.9 4.2282e-15
4717.53 4.3039e-15
4720.17 4.4871e-15
4722.81 4.241e-15
4725.44 4.2673e-15
4728.08 4.522e-15
4730.72 4.032e-15
4733.36 4.0466e-15
4735.99 3.6459e-15
4738.63 4.34e-15
4741.27 4.3728e-15
4743.9 4.7016e-15
4746.54 4.5749e-15
4749.18 4.5149e-15
4751.82 4.5398e-15
4754.45 4.0753e-15
4757.09 4.046e-15
4759.73 4.3605e-15
4762.36 4.4338e-15
4765.0 4.4694e-15
4767.64 4.4913e-15
4770.27 4.8666e-15
4772.91 4.2706e-15
4775.55 4.2956e-15
4778.19 4.311e-15
4780.82 4.2723e-15
4783.46 4.3861e-15
4786.1 3.7693e-15
4788.73 4.1127e-15
4791.37 4.4422e-15
4794.01 4.7325e-15
4796.65 4.3142e-15
4799.28 4.3311e-15
4801.92 4.5274e-15
4804.56 4.466e-15
4807.19 4.1765e-15
4809.83 4.1597e-15
4812.47 4.3737e-15
4815.11 4.1412e-15
4817.74 4.1118e-15
4820.38 4.8665e-15
4823.02 5.0404e-15
4825.65 4.7169e-15
4828.29 4.8802e-15
4830.93 3.9107e-15
4833.57 3.984e-15
4836.2 4.488e-15
4838.84 4.3422e-15
4841.48 4.4912e-15
4844.11 4.4236e-15
4846.75 4.0857e-15
4849.39 3.9845e-15
4852.03 3.957e-15
4854.66 3.8771e-15
4857.3 4.2825e-15
4859.94 4.2859e-15
4862.57 3.8902e-15
4865.21 4.4121e-15
4867.85 4.2991e-15
4870.48 4.6142e-15
4873.12 4.0526e-15
4875.76 3.6424e-15
4878.4 4.6228e-15
4881.03 3.6071e-15
4883.67 4.1582e-15
4886.31 4.0626e-15
4888.94 4.8519e-15
4891.58 4.3975e-15
4894.22 4.3078e-15
4896.86 3.7591e-15
4899.49 3.6898e-15
4902.13 4.0988e-15
4904.77 3.8779e-15
4907.4 3.852e-15
4910.04 4.0146e-15
4912.68 3.8796e-15
4915.32 3.979e-15
4917.95 4.3175e-15
4920.59 4.7836e-15
4923.23 4.9415e-15
4925.86 4.3979e-15
4928.5 4.4123e-15
4931.14 3.9991e-15
4933.78 4.3526e-15
4936.41 4.4474e-15
4939.05 4.3359e-15
4941.69 4.5279e-15
4944.32 4.561e-15
4946.96 3.7575e-15
4949.6 4.4678e-15
4952.24 4.0511e-15
4954.87 4.3682e-15
4957.51 5.1042e-15
4960.15 4.8565e-15
4962.78 4.646e-15
4965.42 4.7555e-15
4968.06 4.9122e-15
4970.69 4.9426e-15
4973.33 4.7906e-15
4975.97 4.7549e-15
4978.61 4.5119e-15
4981.24 4.3037e-15
4983.88 4.432e-15
4986.52 4.9238e-15
4989.15 3.7017e-15
4991.79 5.3922e-15
4994.43 4.0191e-15
4997.07 4.3443e-15
4999.7 4.2905e-15
5002.34 4.5621e-15
5004.98 4.6139e-15
5007.61 4.5303e-15
5010.25 4.6474e-15
5012.89 5.3966e-15
5015.53 4.7491e-15
5018.16 4.3751e-15
5020.8 3.598e-15
5023.44 4.3231e-15
5026.07 4.0013e-15
5028.71 3.7819e-15
5031.35 4.2782e-15
5033.99 4.2336e-15
5036.62 4.3361e-15
5039.26 3.8134e-15
5041.9 4.0655e-15
5044.53 3.9243e-15
5047.17 4.2653e-15
5049.81 3.9883e-15
5052.45 4.1479e-15
5055.08 4.712e-15
5057.72 4.5529e-15
5060.36 4.0572e-15
5062.99 4.6543e-15
5065.63 4.3292e-15
5068.27 4.3229e-15
5070.9 4.7831e-15
5073.54 4.615e-15
5076.18 4.5684e-15
5078.82 4.5228e-15
5081.45 4.2069e-15
5084.09 4.0958e-15
5086.73 4.5501e-15
5089.36 4.2475e-15
5092.0 4.3833e-15
5094.64 4.5353e-15
5097.28 4.561e-15
5099.91 4.3584e-15
5102.55 4.1295e-15
5105.19 4.3646e-15
5107.82 4.3028e-15
5110.46 4.3071e-15
5113.1 4.334e-15
5115.74 4.2276e-15
5118.37 4.6091e-15
5121.01 4.5653e-15
5123.65 4.2559e-15
5126.28 4.6397e-15
5128.92 4.5753e-15
5131.56 4.558e-15
5134.2 4.6631e-15
5136.83 4.4964e-15
5139.47 4.3562e-15
5142.11 4.3351e-15
5144.74 4.479e-15
5147.38 3.6557e-15
5150.02 4.0562e-15
5152.66 4.0317e-15
5155.29 4.5105e-15
5157.93 4.679e-15
5160.57 4.1288e-15
5163.2 4.3681e-15
5165.84 4.2914e-15
5168.48 4.3809e-15
5171.11 4.1372e-15
5173.75 3.4828e-15
5176.39 3.9429e-15
5179.03 3.9188e-15
5181.66 3.7935e-15
5184.3 3.4169e-15
5186.94 3.6412e-15
5189.57 4.0125e-15
5192.21 3.7391e-15
5194.85 3.9739e-15
5197.49 4.1111e-15
5200.12 4.7205e-15
5202.76 4.5048e-15
5205.4 4.3429e-15
5208.03 4.1413e-15
5210.67 4.043e-15
5213.31 3.9822e-15
5215.95 4.2927e-15
5218.58 4.3852e-15
5221.22 4.6444e-15
5223.86 4.3175e-15
5226.49 4.4089e-15
5229.13 4.1865e-15
5231.77 4.0075e-15
5234.41 4.2726e-15
5237.04 3.8315e-15
5239.68 4.1679e-15
5242.32 4.1188e-15
5244.95 3.9102e-15
5247.59 3.9571e-15
5250.23 4.5278e-15
5252.87 4.5113e-15
5255.5 4.0426e-15
5258.14 4.1404e-15
5260.78 4.2454e-15
5263.41 4.4385e-15
5266.05 4.2684e-15
5268.69 4.0679e-15
5271.32 3.9303e-15
5273.96 4.4073e-15
5276.6 4.5131e-15
5279.24 4.4819e-15
5281.87 4.4683e-15
5284.51 4.2602e-15
5287.15 4.0932e-15
5289.78 4.2727e-15
5292.42 4.4153e-15
5295.06 4.542e-15
5297.7 4.6404e-15
5300.33 4.7322e-15
5302.97 4.6927e-15
5305.61 4.509e-15
5308.24 4.3843e-15
5310.88 4.4656e-15
5313.52 4.3486e-15
5316.16 4.6018e-15
5318.79 4.416e-15
5321.43 4.367e-15
5324.07 3.9487e-15
5326.7 4.7199e-15
5329.34 3.9957e-15
5331.98 4.9676e-15
5334.62 4.1529e-15
5337.25 4.339e-15
5339.89 4.7529e-15
5342.53 4.4787e-15
5345.16 4.8291e-15
5347.8 4.5367e-15
5350.44 4.9053e-15
5353.08 4.4435e-15
5355.71 4.7714e-15
5358.35 4.1657e-15
5360.99 5.0262e-15
5363.62 4.3678e-15
5366.26 4.3241e-15
5368.9 4.8941e-15
