# col1 col2
# An Atlas of Galaxy Spectral Energy Distributions from the Ultraviolet to the Mid-Infrared
# Brown et al. (2014)
# http://dx.doi.org/10.5072/03/529D3551F0117
# 
# Column 1 : Restframe Wavelength (Angstrom)
# Column 2 : Flux per unit wavelength (ergs/s/cm^2/Angstrom)
# Column 3 : Observed wavelength (Angstrom)
# Column 4 : Source (0 = model, 1 = Optical Spectrum, 2 = Akari, 3 = Spitzer IRS)
# 
100.09 3.6528e-24
101.95 5.3529e-24
104.08 7.1049e-24
106.02 9.5835e-24
107.99 1.3197e-23
109.99 2.0345e-23
114.12 3.3527e-23
118.13 5.1561e-23
120.88 2.1591e-22
125.13 3.0493e-22
126.87 3.4928e-22
128.05 3.8032e-22
131.03 4.5825e-22
131.94 5.5858e-22
134.08 6.2381e-22
136.89 8.5705e-22
140.08 1.0068e-21
143.01 3.0262e-21
147.02 8.4886e-21
151.14 9.9487e-21
155.01 1.1768e-20
158.99 1.3952e-20
161.95 1.5689e-20
166.1 1.8515e-20
169.97 2.1206e-20
173.13 2.3626e-20
177.16 2.6874e-20
180.04 2.9531e-20
182.13 3.1423e-20
185.94 3.5333e-20
191.15 4.0747e-20
193.81 4.4571e-20
197.87 4.9315e-20
202.01 5.4816e-20
204.82 5.9137e-20
210.07 6.35e-20
215.96 7.6151e-20
219.97 8.3485e-20
223.03 8.8015e-20
227.18 9.6491e-20
229.81 1.5221e-19
234.08 2.5315e-19
240.09 3.321e-19
246.25 3.3049e-19
251.98 3.7159e-19
257.26 3.2732e-19
260.24 3.8719e-19
263.86 4.1867e-19
268.76 4.343e-19
273.76 4.4844e-19
278.85 4.6304e-19
284.03 4.7921e-19
289.98 4.7362e-19
296.05 4.9926e-19
300.86 5.0611e-19
307.87 5.3226e-19
317.96 5.701e-19
328.38 5.9536e-19
338.35 6.1462e-19
347.83 6.3161e-19
356.76 6.4908e-19
365.91 6.7475e-19
375.29 6.8704e-19
384.92 6.7581e-19
394.79 7.1557e-19
404.92 7.3873e-19
414.35 7.4529e-19
422.06 7.4164e-19
429.9 7.4312e-19
440.93 7.601e-19
451.2 7.598e-19
459.59 7.5432e-19
470.3 7.5749e-19
480.14 7.695e-19
490.2 7.5169e-19
500.46 7.7244e-19
506.26 7.5817e-19
512.12 8.6829e-19
520.44 8.7201e-19
530.12 8.7168e-19
539.97 8.4176e-19
550.01 9.0786e-19
560.24 9.7689e-19
570.65 1.0415e-18
579.92 1.0151e-18
589.35 1.1152e-18
600.3 1.1199e-18
610.06 1.1429e-18
619.97 1.3208e-18
630.04 1.3793e-18
640.28 1.3915e-18
650.68 1.5111e-18
658.22 1.5929e-18
664.31 1.6599e-18
675.1 1.6592e-18
684.5 1.632e-18
695.62 2.0302e-18
705.29 1.9515e-18
716.76 2.2604e-18
726.73 2.3443e-18
735.14 2.4314e-18
745.37 2.727e-18
755.74 2.9074e-18
764.49 3.0364e-18
775.12 3.3433e-18
784.1 3.5812e-18
795.01 3.7397e-18
804.21 3.9145e-18
815.4 4.0596e-18
824.84 4.4702e-18
834.39 3.5988e-18
844.05 4.6989e-18
855.8 4.8394e-18
865.71 5.2315e-18
875.73 5.6553e-18
885.87 6.2127e-18
894.07 6.5787e-18
904.42 6.4857e-18
914.89 1.0834e-17
925.49 8.5427e-17
934.05 1.8899e-16
944.87 3.692e-16
955.81 5.4837e-16
964.65 5.6614e-16
975.82 7.6512e-17
984.85 4.0047e-16
993.96 4.813e-16
1005.47 8.0579e-16
1014.78 8.0921e-16
1024.17 3.6049e-16
1036.03 5.1014e-16
1045.61 1.1182e-15
1055.29 1.1025e-15
1065.05 7.9651e-16
1074.91 1.0047e-15
1084.85 7.3089e-16
1094.89 1.0831e-15
1105.02 1.0387e-15
1115.25 9.69e-16
1125.57 8.4946e-16
1135.98 1.1857e-15
1143.85 1.0564e-15
1154.44 1.1605e-15
1165.12 1.1953e-15
1175.9 7.5731e-16
1184.05 1.1591e-15
1195.01 7.046e-16
1206.06 4.5264e-16
1214.42 3.7205e-16
1225.66 7.8779e-16
1234.16 1.292e-15
1245.58 1.4324e-15
1254.21 1.3333e-15
1265.82 1.1033e-15
1274.59 1.5366e-15
1286.38 1.6382e-15
1295.3 1.1727e-15
1304.28 1.1536e-15
1316.35 1.5734e-15
1325.47 1.4917e-15
1334.66 1.2489e-15
1343.91 1.6157e-15
1356.35 1.5565e-15
1365.75 1.3365e-15
1375.22 1.4382e-15
1384.75 1.4543e-15
1394.35 1.2487e-15
1404.01 1.3011e-15
1413.74 1.3156e-15
1423.54 1.3866e-15
1433.41 1.3639e-15
1443.35 1.4643e-15
1446.67 1.5051e-15
1453.35 1.4436e-15
1463.43 1.301e-15
1473.57 1.3064e-15
1483.78 1.3487e-15
1494.07 1.3859e-15
1504.43 1.2899e-15
1511.37 1.1077e-15
1518.35 1.217e-15
1525.35 1.1619e-15
1535.93 9.7275e-16
1546.57 1.1241e-15
1553.71 1.0512e-15
1564.48 1.0629e-15
1575.33 1.1437e-15
1586.25 1.2249e-15
1593.57 1.2502e-15
1604.61 1.2325e-15
1615.74 1.2462e-15
1623.19 1.1574e-15
1634.45 1.2539e-15
1645.78 1.2767e-15
1653.37 1.1586e-15
1664.83 1.2904e-15
1672.52 1.1056e-15
1676.37 1.2928e-15
1684.11 1.3817e-15
1695.78 1.277e-15
1703.61 1.2163e-15
1715.42 1.1294e-15
1723.34 1.1264e-15
1735.28 1.2204e-15
1743.29 1.1895e-15
1755.38 1.2946e-15
1763.48 1.1588e-15
1775.7 1.1934e-15
1783.9 1.2208e-15
1796.27 1.3317e-15
1804.56 1.3221e-15
1817.07 1.1914e-15
1825.45 1.2243e-15
1833.88 1.1635e-15
1846.59 1.0532e-15
1855.11 1.048e-15
1863.68 1.0895e-15
1876.6 1.2134e-15
1885.26 1.0986e-15
1893.96 1.0512e-15
1907.09 1.1232e-15
1915.89 1.0698e-15
1924.73 1.0547e-15
1933.62 1.0914e-15
1947.02 1.1422e-15
1956.01 1.0607e-15
1965.04 1.1869e-15
1974.11 1.2254e-15
1983.22 1.1458e-15
1996.97 1.1063e-15
2006.18 1.15e-15
2015.44 1.0928e-15
2024.75 1.1624e-15
2034.09 1.0844e-15
2043.48 1.143e-15
2052.91 1.0861e-15
2067.14 1.083e-15
2071.91 1.1763e-15
2076.69 1.1078e-15
2086.27 1.1595e-15
2095.9 1.0867e-15
2105.58 1.0913e-15
2115.29 1.1035e-15
2125.06 1.1209e-15
2134.87 1.0243e-15
2144.72 1.0598e-15
2154.62 1.1093e-15
2164.56 1.0688e-15
2174.56 1.0561e-15
2184.59 1.0316e-15
2194.68 1.0875e-15
2204.81 1.0531e-15
2214.98 9.9192e-16
2225.21 9.5168e-16
2235.48 1.0316e-15
2245.8 9.7841e-16
2256.16 9.2584e-16
2266.58 9.562e-16
2277.04 9.8529e-16
2287.55 1.0153e-15
2292.82 9.5409e-16
2303.41 9.4974e-16
2314.04 8.9252e-16
2324.72 6.6014e-16
2335.45 8.1592e-16
2346.23 7.9189e-16
2357.06 8.6632e-16
2362.49 7.8286e-16
2373.4 8.1041e-16
2384.35 7.4425e-16
2395.36 8.0674e-16
2406.42 7.6516e-16
2417.52 7.9025e-16
2423.1 8.4484e-16
2434.28 8.0684e-16
2445.52 8.6259e-16
2456.8 8.4688e-16
2462.47 8.4106e-16
2473.83 8.0509e-16
2485.25 8.315e-16
2496.72 7.8141e-16
2502.48 8.7677e-16
2514.03 7.6896e-16
2519.83 7.96e-16
2525.64 7.5495e-16
2537.29 7.6725e-16
2543.14 7.4807e-16
2554.88 8.1089e-16
2566.67 7.852e-16
2572.59 8.3943e-16
2584.47 8.2604e-16
2596.39 8.1287e-16
2602.38 7.7988e-16
2614.39 7.6744e-16
2626.46 8.0735e-16
2632.51 8.3382e-16
2644.67 9.101e-16
2656.87 9.2919e-16
2663.0 8.3007e-16
2675.29 8.7525e-16
2687.64 8.6726e-16
2693.83 8.2824e-16
2706.27 8.5344e-16
2712.51 8.0758e-16
2725.03 8.0575e-16
2737.6 8.4961e-16
2743.92 7.2482e-16
2756.58 7.4003e-16
2762.94 7.6958e-16
2775.69 8.096e-16
2782.09 7.6609e-16
2794.93 6.0996e-16
2807.83 6.5814e-16
2814.3 8.0044e-16
2827.29 8.4401e-16
2833.81 8.0604e-16
2846.89 7.8591e-16
2853.45 7.575e-16
2866.62 8.3638e-16
2873.23 8.3255e-16
2886.49 8.2686e-16
2893.15 8.1553e-16
2913.2 8.9016e-16
2926.65 8.5406e-16
2946.94 8.3852e-16
2967.36 8.5417e-16
2987.93 8.5423e-16
3008.64 8.6617e-16
3029.5 8.6225e-16
3050.5 8.5834e-16
3071.64 8.584e-16
3092.93 8.6441e-16
3107.21 8.5652e-16
3128.75 8.4483e-16
3150.44 8.4684e-16
3172.27 8.4301e-16
3186.92 7.9956e-16
3209.01 8.2772e-16
3231.25 7.887e-16
3253.65 8.2975e-16
3268.67 8.5303e-16
3291.32 8.4527e-16
3306.52 8.4531e-16
3321.78 8.3568e-16
3329.44 8.6308e-16
3337.11 8.454e-16
3344.8 8.2427e-16
3352.51 8.1674e-16
3360.24 8.3386e-16
3367.99 8.3002e-16
3375.75 7.6926e-16
3383.53 7.7992e-16
3391.34 8.4146e-16
3399.15 8.5904e-16
3406.99 8.1469e-16
3414.84 8.3171e-16
3422.71 8.6487e-16
3430.6 8.4905e-16
3438.51 8.5687e-16
3446.44 7.6894e-16
3454.38 8.2961e-16
3462.35 7.7599e-16
3470.33 8.1252e-16
3478.33 7.6175e-16
3486.35 7.9578e-16
3494.39 7.9026e-16
3502.44 8.1988e-16
3510.51 8.0118e-16
3518.61 7.938e-16
3526.72 7.883e-16
3534.85 8.2541e-16
3543.0 8.5832e-16
3544.8 8.7908e-16
3547.4 3.443e-16
3550.0 1.0742e-15
3552.6 7.8153e-16
3555.19 8.6849e-16
3557.79 6.9443e-16
3560.39 1.1093e-15
3562.99 6.5334e-16
3565.59 4.943e-16
3568.19 8.157e-16
3570.78 2.4583e-16
3573.38 7.0065e-16
3575.98 1.0142e-16
3578.58 4.283e-16
3581.18 5.576e-16
3583.78 1.3077e-15
3586.37 8.9412e-16
3588.97 7.6297e-16
3591.57 7.4584e-16
3594.17 1.0437e-15
3596.77 7.0495e-16
3599.37 1.1215e-15
3601.97 8.7344e-16
3604.56 1.0477e-15
3607.16 1.1322e-15
3609.76 2.6214e-16
3612.36 4.164e-16
3614.96 6.7161e-16
3617.56 4.3681e-16
3620.15 8.0217e-16
3622.75 1.3434e-15
3625.35 4.1956e-16
3627.95 9.6379e-16
3630.55 8.4992e-16
3633.15 8.3832e-16
3635.74 6.2431e-16
3638.34 9.5803e-16
3640.94 4.7397e-16
3643.54 5.6922e-16
3646.14 9.3448e-16
3648.74 2.9851e-16
3651.33 6.3023e-16
3653.93 9.1627e-16
3656.53 5.0065e-16
3659.13 7.82e-16
3661.73 7.4921e-16
3664.33 7.7448e-16
3666.92 5.9453e-16
3669.52 8.6147e-16
3672.12 7.9039e-16
3674.72 9.4324e-16
3677.32 1.12e-15
3679.92 1.0107e-15
3682.52 8.9935e-16
3685.11 1.2798e-15
3687.71 8.9044e-16
3690.31 8.2842e-16
3692.91 4.2378e-16
3695.51 6.0718e-16
3698.11 8.574e-16
3700.7 6.6965e-16
3703.3 1.1411e-15
3705.9 1.2743e-15
3708.5 8.047e-16
3711.1 9.9159e-16
3713.7 1.3114e-15
3716.29 1.2126e-15
3718.89 1.0092e-15
3721.49 1.322e-15
3724.09 1.96e-15
3726.69 2.5543e-15
3729.29 2.6356e-15
3731.88 1.9074e-15
3734.48 1.5813e-15
3737.08 1.1371e-15
3739.68 1.2701e-15
3742.28 9.6795e-16
3744.88 9.4961e-16
3747.47 7.6874e-16
3750.07 9.0673e-16
3752.67 1.001e-15
3755.27 1.1831e-15
3757.87 1.2894e-15
3760.47 1.267e-15
3763.07 9.482e-16
3765.66 7.7478e-16
3768.26 9.1601e-16
3770.86 1.2928e-15
3773.46 6.027e-16
3776.06 1.182e-15
3778.66 1.1274e-15
3781.25 1.208e-15
3783.85 1.1394e-15
3786.45 1.3583e-15
3789.05 1.3938e-15
3791.65 1.4364e-15
3794.25 1.3065e-15
3796.84 8.3312e-16
3799.44 1.137e-15
3802.04 7.9084e-16
3804.64 9.0557e-16
3807.24 1.2584e-15
3809.84 1.5236e-15
3812.43 1.1768e-15
3815.03 1.0784e-15
3817.63 1.3222e-15
3820.23 1.0188e-15
3822.83 9.0627e-16
3825.43 1.3577e-15
3828.02 1.3062e-15
3830.62 1.0732e-15
3833.22 8.7585e-16
3835.82 1.1149e-15
3838.42 7.5361e-16
3841.02 1.016e-15
3843.61 1.4976e-15
3846.21 1.7001e-15
3848.81 1.4174e-15
3851.41 1.2955e-15
3854.01 1.775e-15
3856.61 1.4565e-15
3859.21 1.1851e-15
3861.8 1.1774e-15
3864.4 1.3301e-15
3867.0 1.4019e-15
3869.6 1.2816e-15
3872.2 1.3591e-15
3874.8 1.7313e-15
3877.39 1.4215e-15
3879.99 1.2029e-15
3882.59 1.1823e-15
3885.19 8.711e-16
3887.79 6.6332e-16
3890.39 1.3066e-15
3892.98 1.0962e-15
3895.58 9.1199e-16
3898.18 1.2882e-15
3900.78 1.4508e-15
3903.38 1.337e-15
3905.98 1.3077e-15
3908.57 1.3047e-15
3911.17 1.1489e-15
3913.77 1.4347e-15
3916.37 1.3979e-15
3918.97 1.4484e-15
3921.57 1.7365e-15
3924.17 1.2875e-15
3926.76 1.21e-15
3929.36 1.3513e-15
3931.96 8.8905e-16
3934.56 1.0445e-15
3937.16 1.1282e-15
3939.76 1.4024e-15
3942.35 1.2168e-15
3944.95 1.1533e-15
3947.55 1.3766e-15
3950.15 1.4373e-15
3952.75 9.5117e-16
3955.35 1.3381e-15
3957.94 1.3181e-15
3960.54 9.7321e-16
3963.14 9.035e-16
3965.74 8.9704e-16
3968.34 8.988e-16
3970.94 9.3013e-16
3973.53 9.8436e-16
3976.13 9.5666e-16
3978.73 9.9114e-16
3981.33 1.0199e-15
3983.93 1.3405e-15
3986.53 1.9207e-15
3989.12 1.3571e-15
3991.72 1.5157e-15
3994.32 1.4063e-15
3996.92 1.9517e-15
3999.52 1.5763e-15
4002.12 1.3324e-15
4004.72 1.4299e-15
4007.31 1.2905e-15
4009.91 1.679e-15
4012.51 1.5459e-15
4015.11 1.6696e-15
4017.71 1.42e-15
4020.31 1.3647e-15
4022.9 1.7163e-15
4025.5 1.4308e-15
4028.1 1.5086e-15
4030.7 1.4932e-15
4033.3 1.5234e-15
4035.9 1.3622e-15
4038.49 1.3446e-15
4041.09 1.1765e-15
4043.69 1.294e-15
4046.29 1.1464e-15
4048.89 1.0372e-15
4051.49 1.2993e-15
4054.08 1.6409e-15
4056.68 1.7196e-15
4059.28 1.4986e-15
4061.88 1.4737e-15
4064.48 1.5616e-15
4067.08 1.4223e-15
4069.67 1.638e-15
4072.27 1.5278e-15
4074.87 1.1663e-15
4077.47 1.232e-15
4080.07 1.4941e-15
4082.67 1.528e-15
4085.26 1.3722e-15
4087.86 1.3215e-15
4090.46 1.383e-15
4093.06 1.0777e-15
4095.66 1.1327e-15
4098.26 8.6055e-16
4100.86 9.377e-16
4103.45 1.1455e-15
4106.05 1.2699e-15
4108.65 1.3815e-15
4111.25 1.4919e-15
4113.85 1.4938e-15
4116.45 1.521e-15
4119.04 1.3418e-15
4121.64 1.1924e-15
4124.24 1.5514e-15
4126.84 1.5021e-15
4129.44 1.5802e-15
4132.04 1.6856e-15
4134.63 1.3071e-15
4137.23 1.7793e-15
4139.83 1.6169e-15
4142.43 1.6021e-15
4145.03 1.4249e-15
4147.63 1.4691e-15
4150.22 1.6278e-15
4152.82 1.6065e-15
4155.42 1.6662e-15
4158.02 1.5272e-15
4160.62 1.4097e-15
4163.22 1.375e-15
4165.81 1.4772e-15
4168.41 1.1192e-15
4171.01 1.2449e-15
4173.61 1.6159e-15
4176.21 1.4806e-15
4178.81 1.4904e-15
4181.41 1.5442e-15
4184.0 1.3684e-15
4186.6 1.4747e-15
4189.2 1.6656e-15
4191.8 1.4059e-15
4194.4 1.5352e-15
4197.0 1.4761e-15
4199.59 1.383e-15
4202.19 1.4713e-15
4204.79 1.5366e-15
4207.39 1.6663e-15
4209.99 1.4899e-15
4212.59 1.4363e-15
4215.18 1.5081e-15
4217.78 1.5969e-15
4220.38 1.5682e-15
4222.98 1.4315e-15
4225.58 1.2546e-15
4228.18 1.4268e-15
4230.77 1.5559e-15
4233.37 1.4736e-15
4235.97 1.1938e-15
4238.57 1.3184e-15
4241.17 1.3413e-15
4243.77 1.4867e-15
4246.36 1.6438e-15
4248.96 1.7259e-15
4251.56 1.5914e-15
4254.16 1.7106e-15
4256.76 1.4127e-15
4259.36 1.3837e-15
4261.96 1.4147e-15
4264.55 1.6459e-15
4267.15 1.3254e-15
4269.75 1.6513e-15
4272.35 1.6175e-15
4274.95 1.4579e-15
4277.55 1.3442e-15
4280.14 1.3967e-15
4282.74 1.2461e-15
4285.34 1.4847e-15
4287.94 1.5078e-15
4290.54 1.1054e-15
4293.14 1.363e-15
4295.73 1.3109e-15
4298.33 1.3299e-15
4300.93 1.1576e-15
4303.53 1.4208e-15
4306.13 1.2744e-15
4308.73 1.3233e-15
4311.32 1.376e-15
4313.92 1.5886e-15
4316.52 1.6089e-15
4319.12 1.307e-15
4321.72 1.1659e-15
4324.32 1.3027e-15
4326.91 1.4343e-15
4329.51 1.2527e-15
4332.11 1.0028e-15
4334.71 1.1788e-15
4337.31 1.3501e-15
4339.91 1.3358e-15
4342.5 1.2172e-15
4345.1 1.1593e-15
4347.7 1.081e-15
4350.3 1.1663e-15
4352.9 1.2574e-15
4355.5 1.2864e-15
4358.1 1.2592e-15
4360.69 1.4069e-15
4363.29 1.4431e-15
4365.89 1.2838e-15
4368.49 1.3527e-15
4371.09 1.3755e-15
4373.69 1.4382e-15
4376.28 1.5066e-15
4378.88 1.4807e-15
4381.48 1.4285e-15
4384.08 1.545e-15
4386.68 1.6334e-15
4389.28 1.4043e-15
4391.87 1.4965e-15
4394.47 1.4196e-15
4397.07 1.2672e-15
4399.67 1.3285e-15
4402.27 1.5068e-15
4404.87 1.4991e-15
4407.46 1.372e-15
4410.06 1.2965e-15
4412.66 1.3298e-15
4415.26 1.5418e-15
4417.86 1.8055e-15
4420.46 1.523e-15
4423.05 1.5237e-15
4425.65 1.343e-15
4428.25 1.376e-15
4430.85 1.454e-15
4433.45 1.5728e-15
4436.05 1.3292e-15
4438.65 1.3325e-15
4441.24 1.4776e-15
4443.84 1.5545e-15
4446.44 1.5703e-15
4449.04 1.476e-15
4451.64 1.5502e-15
4454.24 1.2829e-15
4456.83 1.3271e-15
4459.43 1.4983e-15
4462.03 1.4332e-15
4464.63 1.3241e-15
4467.23 1.2124e-15
4469.83 1.3219e-15
4472.42 1.5509e-15
4475.02 1.4219e-15
4477.62 1.3069e-15
4480.22 1.4974e-15
4482.82 1.6677e-15
4485.42 1.4967e-15
4488.01 1.7592e-15
4490.61 1.7359e-15
4493.21 1.7319e-15
4495.81 1.6262e-15
4498.41 1.7381e-15
4501.01 1.7956e-15
4503.6 1.6765e-15
4506.2 1.87e-15
4508.8 2.0225e-15
4511.4 1.8742e-15
4514.0 1.5017e-15
4516.6 1.401e-15
4519.2 1.3915e-15
4521.79 1.6484e-15
4524.39 1.3138e-15
4526.99 1.3599e-15
4529.59 1.5934e-15
4532.19 1.5038e-15
4534.79 1.494e-15
4537.38 1.4836e-15
4539.98 1.4185e-15
4542.58 1.2927e-15
4545.18 1.3662e-15
4547.78 1.5488e-15
4550.38 1.5171e-15
4552.97 1.4125e-15
4555.57 1.4666e-15
4558.17 1.3148e-15
4560.77 1.5403e-15
4563.37 1.4505e-15
4565.97 1.3296e-15
4568.56 1.4819e-15
4571.16 1.5714e-15
4573.76 1.6362e-15
4576.36 1.7102e-15
4578.96 1.7767e-15
4581.56 1.9141e-15
4584.15 1.7822e-15
4586.75 1.7136e-15
4589.35 1.5255e-15
4591.95 1.3645e-15
4594.55 1.3313e-15
4597.15 1.6074e-15
4599.75 1.4978e-15
4602.34 1.5261e-15
4604.94 1.4634e-15
4607.54 1.4934e-15
4610.14 1.5464e-15
4612.74 1.4143e-15
4615.34 1.5171e-15
4617.93 1.2242e-15
4620.53 1.3265e-15
4623.13 1.596e-15
4625.73 1.4083e-15
4628.33 1.3455e-15
4630.93 1.3959e-15
4633.52 1.5782e-15
4636.12 1.4439e-15
4638.72 1.3761e-15
4641.32 1.5701e-15
4643.92 1.3083e-15
4646.52 1.3282e-15
4649.11 1.3081e-15
4651.71 1.1964e-15
4654.31 1.2077e-15
4656.91 1.2579e-15
4659.51 1.5275e-15
4662.11 1.2362e-15
4664.7 1.2465e-15
4667.3 1.3718e-15
4669.9 1.5163e-15
4672.5 1.1021e-15
4675.1 1.4137e-15
4677.7 1.5268e-15
4680.29 1.6314e-15
4682.89 1.491e-15
4685.49 1.3639e-15
4688.09 1.2487e-15
4690.69 1.2214e-15
4693.29 1.5922e-15
4695.89 1.4406e-15
4698.48 1.5209e-15
4701.08 1.1944e-15
4703.68 1.285e-15
4706.28 1.2343e-15
4708.88 1.0444e-15
4711.48 1.37e-15
4714.07 1.4328e-15
4716.67 1.4319e-15
4719.27 1.0217e-15
4721.87 1.3631e-15
4724.47 1.2725e-15
4727.07 1.3964e-15
4729.66 1.6677e-15
4732.26 1.4001e-15
4734.86 1.2042e-15
4737.46 1.3055e-15
4740.06 1.3033e-15
4742.66 1.4648e-15
4745.25 1.5505e-15
4747.85 1.448e-15
4750.45 1.3686e-15
4753.05 1.4024e-15
4755.65 1.4296e-15
4758.25 1.393e-15
4760.84 1.2696e-15
4763.44 1.3549e-15
4766.04 1.3723e-15
4768.64 1.3768e-15
4771.24 1.1487e-15
4773.84 1.6614e-15
4776.44 1.5482e-15
4779.03 1.3367e-15
4781.63 1.4267e-15
4784.23 1.2125e-15
4786.83 1.3453e-15
4789.43 1.2806e-15
4792.03 1.1332e-15
4794.62 1.3256e-15
4797.22 1.215e-15
4799.82 1.2655e-15
4802.42 1.4913e-15
4805.02 1.2731e-15
4807.62 1.1911e-15
4810.21 1.3007e-15
4812.81 1.3187e-15
4815.41 1.283e-15
4818.01 1.2236e-15
4820.61 1.5153e-15
4823.21 1.5738e-15
4825.8 1.2546e-15
4828.4 1.3558e-15
4831.0 1.4586e-15
4833.6 1.2527e-15
4836.2 1.6293e-15
4838.8 1.5344e-15
4841.39 1.5154e-15
4843.99 1.398e-15
4846.59 1.3131e-15
4849.19 1.2906e-15
4851.79 1.5379e-15
4854.39 8.8993e-16
4856.99 1.3854e-15
4859.58 1.4172e-15
4862.18 1.3965e-15
4864.78 1.4625e-15
4867.38 1.3329e-15
4869.98 1.2527e-15
4872.58 1.2235e-15
4875.17 1.3717e-15
4877.77 1.0746e-15
4880.37 1.2753e-15
4882.97 1.4e-15
4885.57 1.0803e-15
4888.17 1.1899e-15
4890.76 1.3426e-15
4893.36 1.4015e-15
4895.96 1.262e-15
4898.56 1.3119e-15
4901.16 1.4503e-15
4903.76 1.3983e-15
4906.35 1.3347e-15
4908.95 1.2672e-15
4911.55 1.1574e-15
4914.15 1.364e-15
4916.75 1.2773e-15
4919.35 1.2601e-15
4921.94 1.1366e-15
4924.54 1.2765e-15
4927.14 1.5219e-15
4929.74 1.1438e-15
4932.34 1.3421e-15
4934.94 1.2639e-15
4937.53 1.181e-15
4940.13 1.1573e-15
4942.73 1.3298e-15
4945.33 1.3174e-15
4947.93 1.4334e-15
4950.53 1.4279e-15
4953.13 1.6204e-15
4955.72 1.2911e-15
4958.32 1.5031e-15
4960.92 1.6892e-15
4963.52 1.6695e-15
4966.12 1.3564e-15
4968.72 1.4712e-15
4971.31 1.2534e-15
4973.91 1.3954e-15
4976.51 1.536e-15
4979.11 1.3038e-15
4981.71 1.5063e-15
4984.31 1.5834e-15
4986.9 1.3789e-15
4989.5 1.2585e-15
4992.1 1.2182e-15
4994.7 1.337e-15
4997.3 1.3364e-15
4999.9 1.2948e-15
5002.49 1.7537e-15
5005.09 1.9193e-15
5007.69 2.1683e-15
5010.29 2.1174e-15
5012.89 1.4977e-15
5015.49 1.6022e-15
5018.08 1.4758e-15
5020.68 1.5765e-15
5023.28 1.5374e-15
5025.88 1.5848e-15
5028.48 1.3502e-15
5031.08 1.4915e-15
5033.68 1.6044e-15
5036.27 1.6131e-15
5038.87 1.2865e-15
5041.47 1.2427e-15
5044.07 1.3284e-15
5046.67 1.3571e-15
5049.27 1.6228e-15
5051.86 1.3773e-15
5054.46 1.3136e-15
5057.06 1.0658e-15
5059.66 1.3442e-15
5062.26 1.3231e-15
5064.86 1.3435e-15
5067.45 1.0273e-15
5070.05 1.313e-15
5072.65 1.2124e-15
5075.25 1.3911e-15
5077.85 1.2576e-15
5080.45 1.0261e-15
5083.04 1.4654e-15
5085.64 1.1557e-15
5088.24 1.1712e-15
5090.84 1.3842e-15
5093.44 1.0727e-15
5096.04 1.2312e-15
5098.63 8.7946e-16
5101.23 1.4351e-15
5103.83 1.4199e-15
5106.43 1.3647e-15
5109.03 1.2545e-15
5111.63 1.0839e-15
5114.23 1.3505e-15
5116.82 1.2406e-15
5119.42 1.2234e-15
5122.02 1.2462e-15
5124.62 1.0112e-15
5127.22 1.1201e-15
5129.82 1.2632e-15
5132.41 8.6929e-16
5135.01 1.1289e-15
5137.61 8.8478e-16
5140.21 1.0535e-15
5142.81 1.2041e-15
5145.41 9.4695e-16
5148.0 1.5353e-15
5150.6 1.1071e-15
5153.2 1.2567e-15
5155.8 1.3213e-15
5158.4 1.1496e-15
5161.0 1.6543e-15
5163.59 1.1526e-15
5166.19 1.1328e-15
5168.79 1.1463e-15
5171.39 8.5775e-16
5173.99 9.6225e-16
5176.59 1.3374e-15
5179.18 1.0347e-15
5181.78 1.1342e-15
5184.38 1.1026e-15
5186.98 1.1266e-15
5189.58 1.0687e-15
5192.18 9.6379e-16
5194.78 1.2313e-15
5197.37 1.2666e-15
5199.97 1.1428e-15
5202.57 1.2083e-15
5205.17 1.0039e-15
5207.77 1.0932e-15
5210.37 1.0129e-15
5212.96 1.1524e-15
5215.56 1.4439e-15
5218.16 1.0376e-15
5220.76 1.1676e-15
5223.36 1.4018e-15
5225.96 1.3758e-15
5228.55 1.1582e-15
5231.15 1.1599e-15
5233.75 1.3965e-15
5236.35 1.1923e-15
5238.95 1.3149e-15
5241.55 1.3477e-15
5244.14 1.2227e-15
5246.74 1.5485e-15
5249.34 1.4196e-15
5251.94 1.2899e-15
5254.54 1.4925e-15
5257.14 1.4908e-15
5259.73 1.4021e-15
5262.33 1.1466e-15
5264.93 9.5137e-16
5267.53 1.1522e-15
5270.13 1.217e-15
5272.73 1.1804e-15
5275.32 1.0745e-15
5277.92 1.2796e-15
5280.52 1.4161e-15
5283.12 1.1989e-15
5285.72 1.2694e-15
5288.32 1.5347e-15
5290.92 1.7505e-15
5293.51 1.1194e-15
5296.11 1.3103e-15
5298.71 1.02e-15
