# col1 col2
# An Atlas of Galaxy Spectral Energy Distributions from the Ultraviolet to the Mid-Infrared
# Brown et al. (2014)
# http://dx.doi.org/10.5072/03/529D3551F0117
# 
# Column 1 : Restframe Wavelength (Angstrom)
# Column 2 : Flux per unit wavelength (ergs/s/cm^2/Angstrom)
# Column 3 : Observed wavelength (Angstrom)
# Column 4 : Source (0 = model, 1 = Optical Spectrum, 2 = Akari, 3 = Spitzer IRS)
# 
100.04 1.6738e-23
101.9 2.1613e-23
104.03 2.6224e-23
105.96 3.2487e-23
107.93 4.0337e-23
109.94 5.7904e-23
114.07 8.3889e-23
118.07 1.1527e-22
121.1 2.5044e-22
125.07 3.4018e-22
127.1 3.9238e-22
127.98 4.2238e-22
130.97 5.1488e-22
131.87 5.7373e-22
134.02 6.4969e-22
137.14 8.1415e-22
140.01 9.7209e-22
142.94 1.4181e-21
146.95 2.0216e-21
151.06 2.4872e-21
154.94 3.0458e-21
158.91 3.6958e-21
161.87 4.2433e-21
166.02 5.0782e-21
169.89 6.0077e-21
173.04 6.7874e-21
177.07 7.9379e-21
179.95 8.886e-21
182.04 9.5655e-21
185.85 1.1033e-20
191.05 1.3023e-20
194.16 1.4378e-20
198.22 1.6319e-20
201.91 1.8353e-20
205.19 2.0031e-20
209.97 2.2683e-20
215.85 2.6959e-20
219.86 2.9834e-20
222.92 3.2041e-20
227.07 3.5294e-20
230.23 9.4342e-20
233.97 1.3388e-19
239.97 1.6133e-19
246.13 1.6815e-19
251.86 1.8185e-19
257.13 1.7049e-19
260.11 1.9174e-19
263.73 2.031e-19
269.25 2.1121e-19
274.26 2.1863e-19
278.71 2.2579e-19
283.89 2.3319e-19
289.84 2.3589e-19
295.91 2.4701e-19
300.72 2.4701e-19
307.72 2.5984e-19
317.8 2.7778e-19
328.21 2.8954e-19
338.19 3.011e-19
347.66 3.124e-19
357.4 3.2487e-19
365.73 3.4018e-19
375.11 3.5132e-19
384.73 3.62e-19
394.6 3.8789e-19
404.72 4.1087e-19
414.15 4.3522e-19
421.85 4.5573e-19
429.69 4.8162e-19
440.71 5.3053e-19
450.98 5.777e-19
460.42 6.2331e-19
470.06 6.9455e-19
479.91 7.793e-19
489.95 8.6837e-19
500.21 9.9702e-19
506.01 3.3397e-18
511.87 1.158e-17
520.18 1.1687e-17
529.85 1.1987e-17
539.7 1.1369e-17
549.74 1.4181e-17
559.96 1.6777e-17
570.37 1.8395e-17
579.64 1.7771e-17
590.41 2.0451e-17
600.01 2.0592e-17
609.76 2.3373e-17
619.66 2.6467e-17
629.73 2.7971e-17
639.96 2.8887e-17
650.36 3.1312e-17
657.89 3.2412e-17
665.51 3.4491e-17
674.77 3.6033e-17
685.73 3.5621e-17
695.27 4.1755e-17
704.95 4.043e-17
716.4 4.7174e-17
726.37 4.8945e-17
734.78 5.1134e-17
745.0 5.4665e-17
755.36 5.7241e-17
765.87 5.9801e-17
774.74 6.349e-17
785.52 6.7718e-17
794.61 7.026e-17
805.67 7.2896e-17
815.0 7.5458e-17
824.43 8.0483e-17
835.9 7.4252e-17
845.58 8.5449e-17
855.37 8.8656e-17
865.28 9.3262e-17
875.3 9.7883e-17
885.43 1.0297e-16
895.69 1.0733e-16
903.97 1.0957e-16
914.44 1.5407e-16
925.03 8.5449e-16
935.74 1.7527e-15
944.4 3.4412e-15
955.34 4.5678e-15
964.18 5.6326e-15
975.34 1.7567e-15
984.36 6.0912e-15
995.76 5.9663e-15
1004.98 6.8819e-15
1014.28 6.2188e-15
1026.02 2.6285e-15
1035.51 5.2325e-15
1045.1 7.7394e-15
1054.77 7.6684e-15
1064.53 6.8502e-15
1074.38 7.4939e-15
1084.32 6.7097e-15
1094.35 7.6156e-15
1104.48 7.2729e-15
1114.7 7.2228e-15
1125.01 6.6789e-15
1135.42 7.374e-15
1145.92 6.9296e-15
1153.87 7.1237e-15
1164.54 7.2228e-15
1175.32 5.8171e-15
1186.2 6.9776e-15
1194.42 6.0354e-15
1205.47 4.9058e-15
1213.83 2.453e-15
1225.06 5.1845e-15
1236.39 6.557e-15
1244.96 6.8345e-15
1253.59 6.7407e-15
1265.19 6.4373e-15
1273.96 6.9136e-15
1285.75 6.9455e-15
1294.66 6.2908e-15
1303.64 6.3053e-15
1315.7 6.8031e-15
1324.82 6.5721e-15
1334.0 6.2619e-15
1346.34 6.5721e-15
1355.68 6.5119e-15
1365.07 6.2331e-15
1374.54 6.2331e-15
1384.06 6.2619e-15
1393.66 5.6455e-15
1406.55 5.7638e-15
1416.3 5.9938e-15
1426.12 5.9252e-15
1436.01 5.9389e-15
1442.63 6.0215e-15
1445.96 5.9801e-15
1455.98 5.898e-15
1466.07 5.7109e-15
1476.24 5.6716e-15
1486.47 5.6196e-15
1493.33 5.5938e-15
1503.68 5.4039e-15
1510.62 5.1251e-15
1517.6 5.2445e-15
1524.6 5.2204e-15
1535.17 4.8496e-15
1545.81 4.9058e-15
1556.53 4.7392e-15
1563.71 4.8496e-15
1574.55 4.9855e-15
1585.46 5.0085e-15
1596.45 5.0316e-15
1603.82 4.8945e-15
1614.94 4.8608e-15
1626.13 4.7831e-15
1633.64 4.872e-15
1644.96 4.8162e-15
1656.37 4.7174e-15
1664.01 4.8496e-15
1671.69 4.6527e-15
1675.54 4.8384e-15
1683.28 4.8273e-15
1694.95 4.6958e-15
1706.7 4.5783e-15
1714.57 4.4535e-15
1726.46 4.4127e-15
1734.43 4.5051e-15
1746.45 4.4127e-15
1754.51 4.4844e-15
1766.67 4.2925e-15
1774.83 4.3123e-15
1783.02 4.3222e-15
1795.38 4.3723e-15
1803.67 4.3622e-15
1816.17 4.1851e-15
1824.55 4.2141e-15
1832.97 4.1372e-15
1845.68 3.9238e-15
1854.2 3.8878e-15
1867.05 3.9238e-15
1875.67 4.0337e-15
1884.33 3.7993e-15
1893.02 3.6535e-15
1906.15 3.8169e-15
1914.94 3.6873e-15
1923.78 3.6117e-15
1937.12 3.6873e-15
1946.06 3.7558e-15
1955.04 3.5539e-15
1968.59 3.7043e-15
1977.68 3.7732e-15
1982.24 3.62e-15
1995.98 3.5376e-15
2005.19 3.5868e-15
2014.45 3.5621e-15
2023.75 3.6117e-15
2033.09 3.481e-15
2047.18 3.489e-15
2056.63 3.3474e-15
2066.12 3.3861e-15
2075.66 3.5132e-15
2085.24 3.4254e-15
2094.87 3.3091e-15
2104.53 3.3551e-15
2114.25 3.3474e-15
2124.01 3.3706e-15
2133.81 3.2863e-15
2143.66 3.2487e-15
2153.56 3.2863e-15
2163.5 3.2263e-15
2173.48 3.2041e-15
2183.51 3.1674e-15
2193.59 3.2041e-15
2203.72 3.1456e-15
2213.89 3.0882e-15
2224.11 3.0318e-15
2234.37 3.074e-15
2244.69 3.0318e-15
2255.05 2.9697e-15
2265.46 2.9765e-15
2275.92 2.9765e-15
2286.42 2.9765e-15
2296.97 2.8891e-15
2307.58 2.8987e-15
2312.9 2.8538e-15
2323.57 2.5577e-15
2334.3 2.7752e-15
2345.07 2.721e-15
2355.9 2.768e-15
2366.77 2.6954e-15
2377.7 2.7106e-15
2383.18 2.632e-15
2394.18 2.6713e-15
2405.23 2.6253e-15
2416.33 2.622e-15
2427.48 2.649e-15
2433.08 2.59e-15
2444.31 2.6167e-15
2455.59 2.6015e-15
2466.93 2.5685e-15
2472.61 2.5346e-15
2484.03 2.549e-15
2495.49 2.4424e-15
2507.01 2.5427e-15
2512.79 2.4464e-15
2518.58 2.4817e-15
2524.39 2.4377e-15
2536.04 2.418e-15
2547.75 2.3984e-15
2553.62 2.4387e-15
2565.41 2.4134e-15
2577.25 2.4328e-15
2583.19 2.4229e-15
2595.11 2.4033e-15
2607.09 2.3675e-15
2613.1 2.3471e-15
2625.16 2.3551e-15
2637.28 2.3523e-15
2643.36 2.4084e-15
2655.56 2.4e-15
2667.82 2.3426e-15
2673.97 2.3548e-15
2686.31 2.352e-15
2692.5 2.2997e-15
2704.93 2.3076e-15
2717.42 2.2681e-15
2723.68 2.2434e-15
2736.25 2.2668e-15
2742.56 2.176e-15
2755.22 2.1785e-15
2767.94 2.191e-15
2774.32 2.2177e-15
2787.12 2.1847e-15
2793.55 2.0401e-15
2806.44 2.0852e-15
2812.91 2.1748e-15
2825.89 2.1673e-15
2832.41 2.129e-15
2845.48 2.1168e-15
2852.04 2.089e-15
2865.21 2.1254e-15
2871.81 2.1121e-15
2885.07 2.1048e-15
2891.72 2.0964e-15
2911.76 2.1147e-15
2931.95 2.0751e-15
2952.27 2.0409e-15
2972.73 2.0352e-15
2993.34 2.0156e-15
3007.16 1.9996e-15
3028.0 1.9849e-15
3048.99 1.9658e-15
3070.12 1.9424e-15
3091.41 1.9238e-15
3112.83 1.9097e-15
3127.2 1.8816e-15
3148.88 1.8636e-15
3170.71 1.8543e-15
3192.69 1.8072e-15
3207.42 1.8137e-15
3229.65 1.7799e-15
3252.04 1.7875e-15
3267.05 1.7898e-15
3289.7 1.7728e-15
3312.5 1.7559e-15
3320.14 1.753e-15
3327.79 1.7623e-15
3335.46 1.7635e-15
3343.15 1.6621e-15
3350.86 1.7296e-15
3358.58 1.6566e-15
3366.33 1.6731e-15
3374.09 1.6399e-15
3381.86 1.6372e-15
3389.66 1.7037e-15
3397.47 1.7009e-15
3405.31 1.6518e-15
3413.16 1.6606e-15
3421.02 1.7082e-15
3428.91 1.6898e-15
3436.81 1.7027e-15
3444.74 1.6309e-15
3452.68 1.7247e-15
3460.64 1.6369e-15
3468.61 1.638e-15
3476.61 1.6316e-15
3484.63 1.614e-15
3492.66 1.6565e-15
3500.71 1.6349e-15
3508.78 1.5988e-15
3516.87 1.5816e-15
3524.98 1.6158e-15
3533.1 1.6432e-15
3541.25 1.6481e-15
3549.41 1.676e-15
3557.59 1.6542e-15
3565.79 1.6706e-15
3574.01 1.5965e-15
3582.25 1.5505e-15
3590.51 1.5093e-15
3598.79 1.5743e-15
3607.08 1.579e-15
3615.4 1.5947e-15
3623.73 1.6069e-15
3632.09 1.6955e-15
3640.46 1.6166e-15
3648.85 1.614e-15
3657.26 1.6376e-15
3665.69 1.6238e-15
3672.09 1.614e-15
3674.83 2.3041e-15
3677.58 2.066e-15
3680.32 1.8026e-15
3683.07 1.5667e-15
3685.81 1.1347e-15
3688.56 2.0488e-15
3691.3 2.0702e-15
3694.05 1.7957e-15
3696.79 1.6187e-15
3699.53 1.3733e-15
3702.28 1.3125e-15
3705.02 1.88e-15
3707.77 1.7417e-15
3710.51 1.6577e-15
3713.26 1.6056e-15
3716.0 1.9308e-15
3718.75 2.876e-15
3721.49 5.5816e-15
3724.24 1.07e-14
3726.98 1.5394e-14
3729.73 1.4855e-14
3732.47 9.8214e-15
3735.21 4.803e-15
3737.96 2.4681e-15
3740.7 1.9804e-15
3743.45 2.1389e-15
3746.19 1.7686e-15
3748.94 1.5779e-15
3751.68 1.6138e-15
3754.43 1.5416e-15
3757.17 1.6367e-15
3759.92 1.7103e-15
3762.66 1.77e-15
3765.41 2.1112e-15
3768.15 1.4797e-15
3770.9 1.9715e-15
3773.64 1.695e-15
3776.38 1.6037e-15
3779.13 1.582e-15
3781.87 1.7643e-15
3784.62 1.4059e-15
3787.36 1.4704e-15
3790.11 1.7078e-15
3792.85 2.0071e-15
3795.6 1.8286e-15
3798.34 2.172e-15
3801.09 2.4164e-15
3803.83 1.8868e-15
3806.58 1.4537e-15
3809.32 1.6247e-15
3812.07 1.6606e-15
3814.81 1.6562e-15
3817.55 1.4881e-15
3820.3 1.6212e-15
3823.04 2.1734e-15
3825.79 1.9843e-15
3828.53 1.361e-15
3831.28 1.556e-15
3834.02 2.124e-15
3836.77 1.8955e-15
3839.51 1.764e-15
3842.26 1.2351e-15
3845.0 1.5437e-15
3847.75 1.985e-15
3850.49 1.7166e-15
3853.24 1.7099e-15
3855.98 1.6419e-15
3858.72 1.4578e-15
3861.47 2.3403e-15
3864.21 3.9616e-15
3866.96 5.7223e-15
3869.7 6.2677e-15
3872.45 4.8614e-15
3875.19 3.0544e-15
3877.94 2.093e-15
3880.68 1.8045e-15
3883.43 2.0836e-15
3886.17 3.1538e-15
3888.92 3.724e-15
3891.66 3.4649e-15
3894.41 2.4481e-15
3897.15 1.7651e-15
3899.89 1.513e-15
3902.64 1.2823e-15
3905.38 1.3218e-15
3908.13 1.4847e-15
3910.87 1.5545e-15
3913.62 1.8223e-15
3916.36 1.9133e-15
3919.11 1.6662e-15
3921.85 1.6194e-15
3924.6 1.5506e-15
3927.34 1.4564e-15
3930.09 1.5367e-15
3932.83 1.4844e-15
3935.58 1.26e-15
3938.32 1.2532e-15
3941.06 1.3619e-15
3943.81 1.6025e-15
3946.55 1.2942e-15
3949.3 1.6618e-15
3952.04 1.707e-15
3954.79 1.4034e-15
3957.53 1.3864e-15
3960.28 1.5564e-15
3963.02 2.3684e-15
3965.77 3.6911e-15
3968.51 4.1126e-15
3971.26 3.7215e-15
3974.0 2.9095e-15
3976.75 2.1628e-15
3979.49 1.8339e-15
3982.23 1.5372e-15
3984.98 1.4218e-15
3987.72 1.6289e-15
3990.47 1.7119e-15
3993.21 1.6533e-15
3995.96 1.4999e-15
3998.7 2.0049e-15
4001.45 1.6654e-15
4004.19 1.5084e-15
4006.94 1.3568e-15
4009.68 1.655e-15
4012.43 1.6677e-15
4015.17 1.869e-15
4017.92 1.8039e-15
4020.66 1.8139e-15
4023.4 1.8811e-15
4026.15 1.638e-15
4028.89 1.8124e-15
4031.64 1.9229e-15
4034.38 1.7452e-15
4037.13 1.8526e-15
4039.87 1.6684e-15
4042.62 1.5611e-15
4045.36 1.3408e-15
4048.11 1.6582e-15
4050.85 1.756e-15
4053.6 1.8559e-15
4056.34 1.7231e-15
4059.09 1.7483e-15
4061.83 1.7974e-15
4064.57 1.7375e-15
4067.32 1.7842e-15
4070.06 1.7818e-15
4072.81 2.0805e-15
4075.55 1.8468e-15
4078.3 1.8144e-15
4081.04 1.6233e-15
4083.79 1.9177e-15
4086.53 1.7293e-15
4089.28 1.5348e-15
4092.02 1.511e-15
4094.77 2.0993e-15
4097.51 3.241e-15
4100.25 4.2037e-15
4103.0 4.2694e-15
4105.74 3.359e-15
4108.49 2.289e-15
4111.23 1.8603e-15
4113.98 1.6018e-15
4116.72 1.6706e-15
4119.47 1.9136e-15
4122.21 1.4523e-15
4124.96 1.4866e-15
4127.7 1.439e-15
4130.45 1.5909e-15
4133.19 1.656e-15
4135.94 1.464e-15
4138.68 1.5141e-15
4141.42 1.6219e-15
4144.17 1.647e-15
4146.91 1.8822e-15
4149.66 1.6739e-15
4152.4 1.8214e-15
4155.15 1.4039e-15
4157.89 1.6269e-15
4160.64 1.7223e-15
4163.38 1.5722e-15
4166.13 1.6089e-15
4168.87 1.4306e-15
4171.62 1.8522e-15
4174.36 1.5636e-15
4177.11 1.5111e-15
4179.85 1.6096e-15
4182.59 1.4615e-15
4185.34 1.5398e-15
4188.08 1.5428e-15
4190.83 1.9608e-15
4193.57 1.6529e-15
4196.32 1.6435e-15
4199.06 1.8119e-15
4201.81 1.6925e-15
4204.55 1.5775e-15
4207.3 1.4218e-15
4210.04 1.5063e-15
4212.79 1.494e-15
4215.53 1.5453e-15
4218.28 1.8022e-15
4221.02 1.6004e-15
4223.76 1.7768e-15
4226.51 1.462e-15
4229.25 1.336e-15
4232.0 1.6521e-15
4234.74 1.7698e-15
4237.49 1.5039e-15
4240.23 1.4938e-15
4242.98 1.5102e-15
4245.72 1.569e-15
4248.47 1.6168e-15
4251.21 1.3872e-15
4253.96 1.6598e-15
4256.7 1.5296e-15
4259.45 1.3692e-15
4262.19 1.227e-15
4264.93 1.4806e-15
4267.68 1.457e-15
4270.42 1.7255e-15
4273.17 1.5562e-15
4275.91 1.5003e-15
4278.66 1.5244e-15
4281.4 1.5178e-15
4284.15 1.5682e-15
4286.89 1.4676e-15
4289.64 1.6039e-15
4292.38 1.543e-15
4295.13 1.4724e-15
4297.87 1.5288e-15
4300.62 1.4674e-15
4303.36 1.298e-15
4306.1 1.5983e-15
4308.85 1.5082e-15
4311.59 1.5271e-15
4314.34 1.4233e-15
4317.08 1.39e-15
4319.83 1.365e-15
4322.57 1.2522e-15
4325.32 1.5881e-15
4328.06 1.4594e-15
4330.81 1.7314e-15
4333.55 2.5128e-15
4336.3 4.2743e-15
4339.04 6.0675e-15
4341.79 6.2054e-15
4344.53 4.7765e-15
4347.27 3.0474e-15
4350.02 2.0465e-15
4352.76 1.4187e-15
4355.51 1.6253e-15
4358.25 1.9492e-15
4361.0 2.2835e-15
4363.74 2.5695e-15
4366.49 2.4671e-15
4369.23 1.883e-15
4371.98 1.6138e-15
4374.72 1.5063e-15
4377.47 1.451e-15
4380.21 1.5171e-15
4382.96 1.6115e-15
4385.7 1.4977e-15
4388.44 1.4417e-15
4391.19 1.367e-15
4393.93 1.6058e-15
4396.68 1.6026e-15
4399.42 1.4876e-15
4402.17 1.6119e-15
4404.91 1.6574e-15
4407.66 1.4116e-15
4410.4 1.2196e-15
4413.15 1.3498e-15
4415.89 1.4574e-15
4418.64 1.6732e-15
4421.38 1.342e-15
4424.13 1.5045e-15
4426.87 1.3181e-15
4429.61 1.5503e-15
4432.36 1.7164e-15
4435.1 1.7007e-15
4437.85 1.5691e-15
4440.59 1.253e-15
4443.34 1.3581e-15
4446.08 1.379e-15
4448.83 1.5006e-15
4451.57 1.5525e-15
4454.32 1.4055e-15
4457.06 1.4338e-15
4459.81 1.6068e-15
4462.55 1.6341e-15
4465.29 1.6811e-15
4468.04 1.8569e-15
4470.78 2.0022e-15
4473.53 2.1596e-15
4476.27 1.9956e-15
4479.02 1.8334e-15
4481.76 1.7211e-15
4484.51 1.6204e-15
4487.25 1.7292e-15
4490.0 1.5971e-15
4492.74 1.4861e-15
4495.49 1.6009e-15
4498.23 1.5509e-15
4500.98 1.5008e-15
4503.72 1.6458e-15
4506.46 1.3552e-15
4509.21 1.5485e-15
4511.95 1.4802e-15
4514.7 1.3612e-15
4517.44 1.4395e-15
4520.19 1.5705e-15
4522.93 1.4267e-15
4525.68 1.5722e-15
4528.42 1.3019e-15
4531.17 1.5825e-15
4533.91 1.4992e-15
4536.66 1.5266e-15
4539.4 1.4747e-15
4542.15 1.2163e-15
4544.89 1.5372e-15
4547.63 1.5223e-15
4550.38 1.5146e-15
4553.12 1.3038e-15
4555.87 1.4203e-15
4558.61 1.5092e-15
4561.36 1.3192e-15
4564.1 1.5048e-15
4566.85 1.3697e-15
4569.59 1.7302e-15
4572.34 1.8418e-15
4575.08 1.6239e-15
4577.83 1.4143e-15
4580.57 1.5036e-15
4583.32 1.5617e-15
4586.06 1.4172e-15
4588.8 1.6419e-15
4591.55 1.6689e-15
4594.29 1.5658e-15
4597.04 1.5667e-15
4599.78 1.2884e-15
4602.53 1.5685e-15
4605.27 1.5133e-15
4608.02 1.6132e-15
4610.76 1.5346e-15
4613.51 1.3328e-15
4616.25 1.4462e-15
4619.0 1.6475e-15
4621.74 1.6812e-15
4624.49 1.5662e-15
4627.23 1.5969e-15
4629.97 1.4554e-15
4632.72 1.4831e-15
4635.46 1.3736e-15
4638.21 1.4518e-15
4640.95 1.4346e-15
4643.7 1.3379e-15
4646.44 1.6328e-15
4649.19 1.4247e-15
4651.93 1.6747e-15
4654.68 1.6114e-15
4657.42 2.0244e-15
4660.17 1.7284e-15
4662.91 1.5889e-15
4665.66 1.46e-15
4668.4 1.2768e-15
4671.14 1.3596e-15
4673.89 1.4782e-15
4676.63 1.3445e-15
4679.38 1.6284e-15
4682.12 1.6651e-15
4684.87 1.7329e-15
4687.61 1.6438e-15
4690.36 1.5662e-15
4693.1 1.7724e-15
4695.85 1.517e-15
4698.59 1.7099e-15
4701.34 1.393e-15
4704.08 1.4715e-15
4706.83 1.3333e-15
4709.57 1.7554e-15
4712.31 1.5349e-15
4715.06 1.5047e-15
4717.8 1.3505e-15
4720.55 1.4282e-15
4723.29 1.5092e-15
4726.04 1.4213e-15
4728.78 1.3578e-15
4731.53 1.453e-15
4734.27 1.2443e-15
4737.02 1.3458e-15
4739.76 1.5422e-15
4742.51 1.475e-15
4745.25 1.4509e-15
4748.0 1.55e-15
4750.74 1.391e-15
4753.48 1.3713e-15
4756.23 1.3442e-15
4758.97 1.3733e-15
4761.72 1.3421e-15
4764.46 1.4665e-15
4767.21 1.5894e-15
4769.95 1.6001e-15
4772.7 1.5238e-15
4775.44 1.5393e-15
4778.19 1.339e-15
4780.93 1.4844e-15
4783.68 1.4462e-15
4786.42 1.4343e-15
4789.17 1.4469e-15
4791.91 1.3717e-15
4794.65 1.4831e-15
4797.4 1.6487e-15
4800.14 1.4986e-15
4802.89 1.451e-15
4805.63 1.3583e-15
4808.38 1.4162e-15
4811.12 1.3211e-15
4813.87 1.2969e-15
4816.61 1.6352e-15
4819.36 1.4184e-15
4822.1 1.4922e-15
4824.85 1.458e-15
4827.59 1.4635e-15
4830.33 1.5211e-15
4833.08 1.5679e-15
4835.82 1.4066e-15
4838.57 1.3717e-15
4841.31 1.3379e-15
4844.06 1.2891e-15
4846.8 1.1929e-15
4849.55 1.5703e-15
4852.29 1.9259e-15
4855.04 3.719e-15
4857.78 7.9757e-15
4860.53 1.2367e-14
4863.27 1.2754e-14
4866.02 8.1759e-15
4868.76 3.6441e-15
4871.5 1.9381e-15
4874.25 1.5151e-15
4876.99 1.3754e-15
4879.74 1.3755e-15
4882.48 1.4273e-15
4885.23 1.2547e-15
4887.97 1.4155e-15
4890.72 1.3589e-15
4893.46 1.3669e-15
4896.21 1.3954e-15
4898.95 1.4019e-15
4901.7 1.4278e-15
4904.44 1.4368e-15
4907.19 1.3934e-15
4909.93 1.2419e-15
4912.67 1.3742e-15
4915.42 1.4111e-15
4918.16 1.3086e-15
4920.91 1.4725e-15
4923.65 1.5429e-15
4926.4 1.4981e-15
4929.14 1.5133e-15
4931.89 1.4236e-15
4934.63 1.3289e-15
4937.38 1.6793e-15
4940.12 1.6024e-15
4942.87 1.6255e-15
4945.61 1.5602e-15
4948.36 1.879e-15
4951.1 3.3818e-15
4953.84 8.2942e-15
4956.59 1.6367e-14
4959.33 2.1371e-14
4962.08 1.778e-14
4964.82 9.3505e-15
4967.57 3.5545e-15
4970.31 1.9854e-15
4973.06 1.5952e-15
4975.8 1.4205e-15
4978.55 1.4435e-15
4981.29 1.504e-15
4984.04 1.4357e-15
4986.78 1.4196e-15
4989.53 1.5168e-15
4992.27 1.8415e-15
4995.01 2.2651e-15
4997.76 4.6796e-15
5000.5 1.3891e-14
5003.25 3.5024e-14
5005.99 5.7901e-14
5008.74 5.8889e-14
5011.48 3.6802e-14
5014.23 1.4159e-14
5016.97 4.8222e-15
5019.72 2.3402e-15
5022.46 1.8059e-15
5025.21 1.5577e-15
5027.95 1.4891e-15
5030.7 1.3526e-15
5033.44 1.3704e-15
5036.18 1.3981e-15
5038.93 1.2433e-15
5041.67 1.1692e-15
5044.42 1.4059e-15
5047.16 1.2477e-15
5049.91 1.4458e-15
5052.65 1.3003e-15
5055.4 1.456e-15
5058.14 1.4581e-15
5060.89 1.3457e-15
5063.63 1.3006e-15
5066.38 1.3121e-15
5069.12 1.2071e-15
5071.87 1.3616e-15
5074.61 1.3131e-15
5077.35 1.3202e-15
5080.1 1.2776e-15
5082.84 1.2547e-15
5085.59 1.1272e-15
5088.33 1.3074e-15
5091.08 1.3749e-15
5093.82 1.35e-15
5096.57 1.425e-15
5099.31 1.2472e-15
5102.06 1.2344e-15
5104.8 1.2527e-15
5107.55 1.3493e-15
5110.29 1.2526e-15
5113.04 1.2582e-15
5115.78 1.3142e-15
5118.52 1.4171e-15
5121.27 1.3609e-15
5124.01 1.3415e-15
5126.76 1.3516e-15
5129.5 1.2475e-15
5132.25 1.2528e-15
5134.99 1.1689e-15
5137.74 1.2923e-15
5140.48 1.235e-15
5143.23 1.3687e-15
5145.97 1.3106e-15
5148.72 1.3731e-15
5151.46 1.1727e-15
5154.21 1.1269e-15
5156.95 1.3011e-15
5159.69 1.3177e-15
5162.44 1.2551e-15
5165.18 1.0517e-15
5167.93 9.6461e-16
5170.67 1.2374e-15
5173.42 1.3052e-15
5176.16 1.1579e-15
5178.91 1.244e-15
5181.65 1.1878e-15
5184.4 1.1971e-15
5187.14 1.2273e-15
5189.89 1.188e-15
5192.63 1.0332e-15
5195.37 1.07e-15
5198.12 1.115e-15
5200.86 1.2541e-15
5203.61 1.2752e-15
5206.35 1.169e-15
5209.1 1.1389e-15
5211.84 1.3517e-15
5214.59 1.3505e-15
5217.33 1.2181e-15
5220.08 1.2012e-15
5222.82 1.2409e-15
5225.57 1.2784e-15
5228.31 1.3145e-15
5231.06 1.0716e-15
5233.8 1.1517e-15
5236.54 1.3265e-15
5239.29 1.2263e-15
5242.03 1.2404e-15
5244.78 1.2974e-15
5247.52 1.3611e-15
5250.27 1.3909e-15
5253.01 1.1502e-15
5255.76 1.0483e-15
5258.5 1.1996e-15
5261.25 1.2651e-15
5263.99 1.2351e-15
5266.74 1.1082e-15
5269.48 1.0726e-15
5272.23 1.2715e-15
5274.97 1.325e-15
5277.71 1.3457e-15
5280.46 1.2237e-15
5283.2 1.0393e-15
5285.95 1.0911e-15
5288.69 1.3152e-15
5291.44 1.4179e-15
5294.18 1.3861e-15
5296.93 1.3394e-15
5299.67 1.3166e-15
5302.42 1.3131e-15
5305.16 1.2273e-15
5307.91 1.224e-15
5310.65 1.2565e-15
5313.4 1.2784e-15
5316.14 1.2428e-15
5318.88 1.09e-15
5321.63 1.4689e-15
5324.37 1.3824e-15
5327.12 1.3104e-15
5329.86 1.2139e-15
5332.61 1.2185e-15
5335.35 1.1764e-15
5338.1 1.2635e-15
5340.84 1.2293e-15
5343.59 1.1939e-15
5346.33 1.2046e-15
5349.08 1.2728e-15
5351.82 1.2277e-15
5354.57 1.2487e-15
5357.31 1.2089e-15
5360.05 1.1563e-15
5362.8 1.0745e-15
5365.54 1.1915e-15
5368.29 1.1177e-15
5371.03 1.2062e-15
5373.78 1.1076e-15
5376.52 1.2324e-15
5379.27 1.2958e-15
5382.01 1.2311e-15
5384.76 1.1595e-15
5387.5 1.3618e-15
5390.25 1.2581e-15
5392.99 1.1232e-15
5395.74 1.1524e-15
5398.48 1.1413e-15
5401.22 1.1683e-15
5403.97 1.1936e-15
5406.71 1.2233e-15
5409.46 1.1039e-15
5412.2 1.2858e-15
5414.95 1.3038e-15
5417.69 1.1467e-15
5420.44 1.1324e-15
5423.18 1.1409e-15
5425.93 1.2426e-15
5428.67 1.1502e-15
5431.42 1.2284e-15
5434.16 1.2774e-15
5436.91 1.3892e-15
5439.65 1.426e-15
5442.39 1.1106e-15
5445.14 1.062e-15
5447.88 1.2678e-15
5450.63 1.2102e-15
5453.37 1.0213e-15
5456.12 1.1253e-15
5458.86 1.3121e-15
5461.61 1.2296e-15
5464.35 1.245e-15
5467.1 1.1316e-15
5469.84 1.1686e-15
5472.59 1.2349e-15
5475.33 1.25e-15
5478.08 1.4307e-15
5480.82 1.4816e-15
5483.56 1.3287e-15
5486.31 1.2337e-15
5489.05 1.1513e-15
5491.8 1.1097e-15
