# col1 col2
# An Atlas of Galaxy Spectral Energy Distributions from the Ultraviolet to the Mid-Infrared
# Brown et al. (2014)
# http://dx.doi.org/10.5072/03/529D3551F0117
# 
# Column 1 : Restframe Wavelength (Angstrom)
# Column 2 : Flux per unit wavelength (ergs/s/cm^2/Angstrom)
# Column 3 : Observed wavelength (Angstrom)
# Column 4 : Source (0 = model, 1 = Optical Spectrum, 2 = Akari, 3 = Spitzer IRS)
# 
102.07 1.2611e-22
103.97 1.5372e-22
105.9 1.9308e-22
108.12 2.442e-22
109.88 3.7996e-22
114.0 5.646e-22
118.01 7.8839e-22
121.04 2.1515e-21
125.0 2.9974e-21
127.03 3.4973e-21
127.91 3.7909e-21
130.89 4.6853e-21
132.1 5.3424e-21
133.94 6.1057e-21
137.06 7.902e-21
139.93 9.6103e-21
142.86 1.5337e-20
146.86 2.3482e-20
150.98 2.963e-20
154.85 3.7131e-20
158.82 4.621e-20
162.15 5.4167e-20
165.92 6.6334e-20
170.18 8.0304e-20
172.95 9.2414e-20
176.97 1.106e-19
179.85 1.2611e-19
181.93 1.3732e-19
186.17 1.6208e-19
190.95 1.9712e-19
194.05 2.2118e-19
198.11 2.5629e-19
201.8 2.9494e-19
205.07 3.2714e-19
209.85 3.7735e-19
216.23 4.6638e-19
220.25 5.2691e-19
222.8 5.7245e-19
226.94 6.4378e-19
230.1 1.2295e-18
233.84 2.0079e-18
239.83 2.6106e-18
245.99 2.7909e-18
251.72 3.1314e-18
256.99 2.8889e-18
259.96 3.402e-18
264.19 3.6961e-18
269.1 3.9241e-18
274.1 4.147e-18
279.2 4.3726e-18
283.73 4.6104e-18
289.67 4.7287e-18
295.74 5.102e-18
301.24 5.1968e-18
308.26 5.6071e-18
318.35 6.1764e-18
328.03 6.6487e-18
338.0 7.0752e-18
348.27 7.4944e-18
357.2 7.8839e-18
366.36 8.2935e-18
374.9 8.6445e-18
385.4 8.8255e-18
395.29 9.3916e-18
405.43 9.789e-18
413.91 1.0086e-17
421.61 1.0345e-17
430.44 1.0586e-17
441.48 1.1034e-17
450.72 1.1369e-17
460.16 1.1661e-17
469.8 1.2043e-17
479.64 1.2466e-17
489.68 1.2845e-17
499.93 1.342e-17
505.72 1.9712e-17
511.58 4.5681e-17
519.89 4.6638e-17
529.55 4.8166e-17
539.4 4.6853e-17
549.43 5.8042e-17
559.64 6.8036e-17
570.05 7.5117e-17
580.65 7.3576e-17
590.08 8.5063e-17
599.67 8.6644e-17
609.41 9.8796e-17
619.31 1.1317e-16
629.38 1.2071e-16
639.6 1.2582e-16
650.0 1.3796e-16
657.52 1.4446e-16
665.14 1.5443e-16
674.39 1.6208e-16
685.35 1.6208e-16
694.88 1.9353e-16
704.55 1.8782e-16
716.0 2.2322e-16
725.96 2.3321e-16
734.36 2.4476e-16
744.58 2.6653e-16
754.94 2.8167e-16
765.44 2.9699e-16
774.3 3.197e-16
785.07 3.4414e-16
794.17 3.6036e-16
805.21 3.7648e-16
814.54 3.9241e-16
825.87 4.2339e-16
835.43 3.8792e-16
845.11 4.5471e-16
854.89 4.7505e-16
864.79 5.0552e-16
874.8 5.3671e-16
884.93 5.7113e-16
895.18 5.9943e-16
905.55 6.1622e-16
916.03 8.9071e-16
924.51 5.2691e-15
935.21 1.1085e-14
946.04 2.1367e-14
954.8 2.778e-14
965.85 3.3864e-14
974.79 9.6103e-15
986.08 3.4893e-14
995.2 3.3864e-14
1004.41 4.0247e-14
1016.04 3.7561e-14
1025.44 1.7129e-14
1034.93 3.1677e-14
1044.51 4.7178e-14
1054.17 4.6317e-14
1063.92 4.0996e-14
1073.77 4.5471e-14
1086.2 4.0526e-14
1096.25 4.6853e-14
1103.85 4.4848e-14
1114.07 4.4744e-14
1124.37 4.0901e-14
1134.78 4.6317e-14
1145.28 4.3425e-14
1155.88 4.4848e-14
1163.89 4.5576e-14
1174.66 3.5378e-14
1185.53 4.4334e-14
1193.74 3.8613e-14
1204.79 3.1459e-14
1215.94 1.7328e-14
1224.37 3.4494e-14
1235.69 4.2829e-14
1244.26 4.4848e-14
1255.77 4.413e-14
1264.48 4.2339e-14
1276.18 4.5998e-14
1285.02 4.6317e-14
1293.93 4.1566e-14
1305.9 4.2047e-14
1314.96 4.5998e-14
1324.07 4.4436e-14
1336.32 4.2436e-14
1345.58 4.4744e-14
1354.91 4.4539e-14
1364.3 4.2436e-14
1373.76 4.2632e-14
1386.47 4.2928e-14
1396.08 3.7822e-14
1405.76 3.8971e-14
1415.5 4.128e-14
1425.32 4.0714e-14
1435.2 4.1185e-14
1441.82 4.2047e-14
1448.48 4.1758e-14
1455.16 4.1185e-14
1465.25 3.9695e-14
1475.4 3.9695e-14
1485.63 3.9513e-14
1495.93 3.9331e-14
1506.3 3.7909e-14
1513.25 3.5542e-14
1516.74 3.6622e-14
1523.74 3.6622e-14
1534.3 3.3554e-14
1544.94 3.4099e-14
1555.65 3.2941e-14
1566.43 3.4099e-14
1573.66 3.5542e-14
1584.57 3.5788e-14
1595.55 3.6203e-14
1606.61 3.5297e-14
1614.03 3.5054e-14
1625.22 3.4573e-14
1636.48 3.5542e-14
1644.04 3.5378e-14
1655.43 3.4573e-14
1666.91 3.5788e-14
1670.75 3.4177e-14
1678.46 3.6119e-14
1686.21 3.6203e-14
1693.99 3.5054e-14
1705.73 3.4256e-14
1713.61 3.3323e-14
1725.48 3.3093e-14
1733.45 3.4099e-14
1745.46 3.3476e-14
1753.52 3.4256e-14
1765.68 3.2714e-14
1773.83 3.2941e-14
1786.12 3.3169e-14
1794.37 3.3942e-14
1806.8 3.3942e-14
1815.14 3.234e-14
1823.52 3.2714e-14
1836.16 3.2117e-14
1844.64 3.0181e-14
1853.15 3.0181e-14
1866.0 3.0813e-14
1874.61 3.175e-14
1883.26 2.9836e-14
1896.32 2.8691e-14
1905.07 3.0112e-14
1913.86 2.9224e-14
1927.13 2.8559e-14
1936.03 2.9157e-14
1944.96 3.0251e-14
1953.94 2.8493e-14
1967.48 3.0043e-14
1976.56 3.0742e-14
1985.69 2.9426e-14
1994.85 2.8823e-14
2004.06 2.9224e-14
2013.31 2.909e-14
2027.27 2.9562e-14
2036.62 2.8559e-14
2046.02 2.8889e-14
2055.47 2.7844e-14
2064.96 2.8167e-14
2074.49 2.9562e-14
2079.27 2.8493e-14
2084.06 2.8956e-14
2093.68 2.7909e-14
2103.35 2.8297e-14
2113.06 2.8427e-14
2122.81 2.8625e-14
2132.61 2.778e-14
2147.39 2.7717e-14
2157.3 2.8167e-14
2167.26 2.7653e-14
2177.26 2.7462e-14
2187.31 2.7399e-14
2197.41 2.7909e-14
2202.48 2.7399e-14
2212.64 2.6714e-14
2222.85 2.6347e-14
2233.11 2.7086e-14
2243.42 2.6591e-14
2253.78 2.5926e-14
2264.18 2.5986e-14
2274.63 2.6226e-14
2285.13 2.6531e-14
2295.68 2.5517e-14
2306.27 2.5877e-14
2316.92 2.5351e-14
2327.61 2.2443e-14
2332.98 2.4386e-14
2343.75 2.3671e-14
2354.57 2.4735e-14
2365.44 2.3626e-14
2376.35 2.4015e-14
2387.32 2.2833e-14
2392.83 2.3475e-14
2403.87 2.3051e-14
2414.97 2.3162e-14
2426.11 2.3981e-14
2437.31 2.344e-14
2442.93 2.3934e-14
2454.21 2.3829e-14
2465.53 2.3561e-14
2476.91 2.3029e-14
2482.62 2.2979e-14
2494.08 2.1949e-14
2505.6 2.3578e-14
2511.37 2.1956e-14
2517.16 2.2009e-14
2522.96 2.1659e-14
2534.61 2.1814e-14
2546.31 2.1668e-14
2552.18 2.2588e-14
2563.96 2.218e-14
2575.79 2.2754e-14
2587.68 2.2603e-14
2593.65 2.2346e-14
2605.62 2.1842e-14
2617.65 2.1498e-14
2623.68 2.2103e-14
2635.79 2.2675e-14
2647.96 2.3913e-14
2654.06 2.4417e-14
2666.31 2.3056e-14
2672.46 2.3541e-14
2684.79 2.3764e-14
2697.19 2.2648e-14
2703.4 2.3125e-14
2715.88 2.214e-14
2722.14 2.1889e-14
2734.71 2.2507e-14
2747.33 2.0626e-14
2753.66 2.1109e-14
2766.37 2.1756e-14
2772.75 2.2265e-14
2785.55 2.117e-14
2791.97 1.8272e-14
2804.86 1.9049e-14
2817.81 2.1978e-14
2824.3 2.2596e-14
2837.34 2.2138e-14
2843.88 2.1537e-14
2857.01 2.0525e-14
2863.59 2.2199e-14
2876.81 2.2565e-14
2883.44 2.2361e-14
2896.75 2.2522e-14
2910.12 2.3752e-14
2930.29 2.306e-14
2950.6 2.2596e-14
2971.06 2.2813e-14
2991.65 2.2769e-14
3012.39 2.2778e-14
3033.27 2.2839e-14
3047.27 2.295e-14
3068.39 2.2959e-14
3089.66 2.2862e-14
3111.08 2.303e-14
3132.64 2.2618e-14
3147.1 2.252e-14
3168.92 2.279e-14
3190.88 2.1924e-14
3213.0 2.2495e-14
3227.83 2.1637e-14
3250.21 2.2982e-14
3272.74 2.3744e-14
3287.84 2.3587e-14
3310.63 2.3327e-14
3318.26 2.2904e-14
3325.91 2.296e-14
3333.58 2.3661e-14
3341.27 2.2136e-14
3348.97 2.3832e-14
3356.69 2.292e-14
3364.43 2.043e-14
3372.18 2.067e-14
3379.96 2.2772e-14
3387.75 2.2933e-14
3395.56 2.2569e-14
3403.39 2.3528e-14
3411.23 2.186e-14
3419.09 2.2683e-14
3426.98 2.3268e-14
3434.88 2.4145e-14
3442.79 2.2693e-14
3450.73 2.3118e-14
3458.69 2.2647e-14
3466.66 2.2598e-14
3474.65 2.3558e-14
3482.66 2.2814e-14
3490.69 2.3948e-14
3498.73 2.2301e-14
3506.8 2.3517e-14
3514.88 2.2514e-14
3522.99 2.3742e-14
3531.11 2.2939e-14
3539.25 2.3968e-14
3547.41 2.4757e-14
3555.58 2.4591e-14
3563.78 2.3979e-14
3572.0 2.2485e-14
3580.23 2.2334e-14
3588.48 2.0419e-14
3596.76 2.2756e-14
3605.05 2.3887e-14
3613.36 2.2398e-14
3621.69 2.2196e-14
3630.04 2.5489e-14
3638.4 2.3901e-14
3646.79 2.3849e-14
3648.01 2.3105e-14
3650.74 1.3728e-14
3653.47 1.8859e-14
3656.2 2.3834e-14
3658.93 2.9508e-14
3661.66 3.326e-14
3664.39 3.1261e-14
3667.12 2.5251e-14
3669.85 2.5585e-14
3672.59 2.2038e-14
3675.32 2.7264e-14
3678.05 2.0435e-14
3680.78 1.929e-14
3683.51 2.4146e-14
3686.24 2.4009e-14
3688.97 2.5699e-14
3691.7 2.2657e-14
3694.43 2.1145e-14
3697.16 2.3732e-14
3699.89 1.5117e-14
3702.62 1.3044e-14
3705.35 2.1831e-14
3708.08 2.5431e-14
3710.81 2.1621e-14
3713.54 2.2099e-14
3716.27 2.5493e-14
3719.0 1.5992e-14
3721.73 2.2216e-14
3724.46 3.6972e-14
3727.2 6.2253e-14
3729.93 7.3162e-14
3732.66 7.0817e-14
3735.39 4.481e-14
3738.12 2.9386e-14
3740.85 2.65e-14
3743.58 2.2148e-14
3746.31 2.4872e-14
3749.04 1.9579e-14
3751.77 1.8978e-14
3754.5 3.175e-14
3757.23 2.2626e-14
3759.96 2.3733e-14
3762.69 2.3529e-14
3765.42 2.9871e-14
3768.15 2.4527e-14
3770.88 2.1052e-14
3773.61 2.328e-14
3776.34 2.4244e-14
3779.08 2.5024e-14
3781.81 3.3527e-14
3784.54 3.7469e-14
3787.27 2.8704e-14
3790.0 2.9623e-14
3792.73 2.8333e-14
3795.46 2.6624e-14
3798.19 2.307e-14
3800.92 2.2057e-14
3803.65 2.4708e-14
3806.38 3.1098e-14
3809.11 2.8227e-14
3811.84 3.132e-14
3814.57 2.9692e-14
3817.3 3.3661e-14
3820.03 2.3845e-14
3822.76 2.5418e-14
3825.49 2.1427e-14
3828.22 3.046e-14
3830.95 2.1877e-14
3833.69 2.7004e-14
3836.42 2.1262e-14
3839.15 2.4869e-14
3841.88 2.1471e-14
3844.61 2.5733e-14
3847.34 2.9667e-14
3850.07 2.4492e-14
3852.8 2.6005e-14
3855.53 3.2988e-14
3858.26 3.5355e-14
3860.99 3.0261e-14
3863.72 2.7692e-14
3866.45 3.4911e-14
3869.18 3.1484e-14
3871.91 3.689e-14
3874.64 3.463e-14
3877.37 3.0738e-14
3880.1 3.2223e-14
3882.83 3.1227e-14
3885.56 2.9848e-14
3888.3 1.9999e-14
3891.03 2.1943e-14
3893.76 3.1986e-14
3896.49 3.2303e-14
3899.22 2.4464e-14
3901.95 3.0647e-14
3904.68 3.0782e-14
3907.41 3.0349e-14
3910.14 2.6338e-14
3912.87 3.0431e-14
3915.6 3.227e-14
3918.33 2.7154e-14
3921.06 3.2769e-14
3923.79 3.057e-14
3926.52 3.1456e-14
3929.25 3.1023e-14
3931.98 2.4425e-14
3934.71 2.2749e-14
3937.44 2.2003e-14
3940.18 2.4866e-14
3942.91 2.697e-14
3945.64 2.9813e-14
3948.37 2.7968e-14
3951.1 2.8148e-14
3953.83 3.1178e-14
3956.56 3.1857e-14
3959.29 2.9291e-14
3962.02 3.0682e-14
3964.75 2.6688e-14
3967.48 2.0478e-14
3970.21 2.0521e-14
3972.94 2.1557e-14
3975.67 2.2004e-14
3978.4 2.2478e-14
3981.13 2.6014e-14
3983.86 3.274e-14
3986.59 3.2501e-14
3989.32 3.3442e-14
3992.05 3.3997e-14
3994.79 3.2204e-14
3997.52 3.413e-14
4000.25 2.9597e-14
4002.98 3.348e-14
4005.71 3.3254e-14
4008.44 3.3498e-14
4011.17 3.4783e-14
4013.9 3.432e-14
4016.63 3.7358e-14
4019.36 3.9941e-14
4022.09 3.7219e-14
4024.82 3.3496e-14
4027.55 3.5017e-14
4030.28 3.6014e-14
4033.01 3.5138e-14
4035.74 3.6193e-14
4038.47 3.5456e-14
4041.2 3.628e-14
4043.93 3.3321e-14
4046.66 3.4573e-14
4049.4 3.3088e-14
4052.13 3.9628e-14
4054.86 3.8842e-14
4057.59 3.4734e-14
4060.32 3.5556e-14
4063.05 3.9746e-14
4065.78 3.3261e-14
4068.51 3.4013e-14
4071.24 3.5664e-14
4073.97 3.8164e-14
4076.7 3.5506e-14
4079.43 3.6387e-14
4082.16 3.4881e-14
4084.89 3.2132e-14
4087.62 3.3429e-14
4090.35 3.9252e-14
4093.08 3.7404e-14
4095.81 3.4044e-14
4098.54 3.4663e-14
4101.27 3.5763e-14
4104.01 3.6362e-14
4106.74 3.1404e-14
4109.47 3.1483e-14
4112.2 3.2344e-14
4114.93 3.4372e-14
4117.66 3.3247e-14
4120.39 2.9812e-14
4123.12 3.3606e-14
4125.85 3.2496e-14
4128.58 3.2484e-14
4131.31 3.2782e-14
4134.04 3.3918e-14
4136.77 3.3939e-14
4139.5 3.4047e-14
4142.23 3.5486e-14
4144.96 3.4534e-14
4147.69 3.3534e-14
4150.42 3.4663e-14
4153.15 3.1465e-14
4155.89 3.5713e-14
4158.62 3.487e-14
4161.35 3.8451e-14
4164.08 3.928e-14
4166.81 3.5827e-14
4169.54 3.4826e-14
4172.27 3.4628e-14
4175.0 3.4979e-14
4177.73 3.3787e-14
4180.46 3.3856e-14
4183.19 3.0033e-14
4185.92 3.7564e-14
4188.65 3.2924e-14
4191.38 3.4682e-14
4194.11 3.4113e-14
4196.84 3.7312e-14
4199.57 3.4424e-14
4202.3 3.4482e-14
4205.03 3.2121e-14
4207.76 3.628e-14
4210.5 3.3557e-14
4213.23 3.4951e-14
4215.96 3.3228e-14
4218.69 3.1717e-14
4221.42 3.317e-14
4224.15 3.5149e-14
4226.88 3.7408e-14
4229.61 3.2876e-14
4232.34 3.4867e-14
4235.07 3.9048e-14
4237.8 3.7353e-14
4240.53 3.26e-14
4243.26 3.3883e-14
4245.99 3.655e-14
4248.72 3.5872e-14
4251.45 3.8622e-14
4254.18 3.2175e-14
4256.91 3.5168e-14
4259.64 3.2603e-14
4262.37 3.5216e-14
4265.11 3.3756e-14
4267.84 3.5947e-14
4270.57 3.3866e-14
4273.3 3.2929e-14
4276.03 3.5469e-14
4278.76 3.4005e-14
4281.49 3.6325e-14
4284.22 3.2014e-14
4286.95 3.264e-14
4289.68 3.2289e-14
4292.41 3.4623e-14
4295.14 3.2949e-14
4297.87 3.0519e-14
4300.6 3.3381e-14
4303.33 2.9208e-14
4306.06 2.9041e-14
4308.79 3.2723e-14
4311.52 3.2198e-14
4314.25 3.0338e-14
4316.99 3.3741e-14
4319.72 3.4554e-14
4322.45 3.3567e-14
4325.18 3.0928e-14
4327.91 3.1819e-14
4330.64 2.98e-14
4333.37 3.0117e-14
4336.1 3.6362e-14
4338.83 3.6423e-14
4341.56 3.7687e-14
4344.29 3.8725e-14
4347.02 3.6865e-14
4349.75 3.267e-14
4352.48 3.1169e-14
4355.21 3.1025e-14
4357.94 3.3095e-14
4360.67 3.5347e-14
4363.4 3.7558e-14
4366.13 3.5976e-14
4368.86 3.5628e-14
4371.6 3.5577e-14
4374.33 3.5073e-14
4377.06 3.403e-14
4379.79 3.4932e-14
4382.52 3.6613e-14
4385.25 3.4335e-14
4387.98 3.1501e-14
4390.71 3.2806e-14
4393.44 3.3317e-14
4396.17 3.5178e-14
4398.9 3.4799e-14
4401.63 3.3739e-14
4404.36 3.3459e-14
4407.09 3.3957e-14
4409.82 3.516e-14
4412.55 3.641e-14
4415.28 3.8658e-14
4418.01 3.8167e-14
4420.74 3.721e-14
4423.48 3.7556e-14
4426.21 3.7297e-14
4428.94 3.9022e-14
4431.67 3.6788e-14
4434.4 3.7632e-14
4437.13 3.3554e-14
4439.86 3.3847e-14
4442.59 3.6384e-14
4445.32 3.8677e-14
4448.05 3.7592e-14
4450.78 3.333e-14
4453.51 3.5443e-14
4456.24 3.645e-14
4458.97 3.7155e-14
4461.7 3.732e-14
4464.43 3.506e-14
4467.16 3.395e-14
4469.89 3.6479e-14
4472.62 3.9024e-14
4475.35 4.1563e-14
4478.09 3.701e-14
4480.82 3.9528e-14
4483.55 3.8762e-14
4486.28 3.7353e-14
4489.01 3.7836e-14
4491.74 3.799e-14
4494.47 3.5919e-14
4497.2 3.6631e-14
4499.93 3.7733e-14
4502.66 3.7534e-14
4505.39 3.7938e-14
4508.12 3.9505e-14
4510.85 3.7882e-14
4513.58 3.7557e-14
4516.31 3.8322e-14
4519.04 3.8243e-14
4521.77 3.6858e-14
4524.5 3.6419e-14
4527.23 3.5775e-14
4529.96 3.6516e-14
4532.7 3.7369e-14
4535.43 3.5511e-14
4538.16 3.806e-14
4540.89 3.9663e-14
4543.62 3.9418e-14
4546.35 3.9582e-14
4549.08 3.7604e-14
4551.81 3.8746e-14
4554.54 3.8462e-14
4557.27 3.9034e-14
4560.0 3.8897e-14
4562.73 3.8346e-14
4565.46 3.6634e-14
4568.19 3.555e-14
4570.92 3.5243e-14
4573.65 3.5714e-14
4576.38 3.816e-14
4579.11 3.8557e-14
4581.84 3.6201e-14
4584.58 3.5275e-14
4587.31 3.6069e-14
4590.04 3.9464e-14
4592.77 3.9505e-14
4595.5 3.6355e-14
4598.23 3.6085e-14
4600.96 3.9202e-14
4603.69 4.2429e-14
4606.42 3.993e-14
4609.15 3.9005e-14
4611.88 4.0098e-14
4614.61 4.1038e-14
4617.34 4.0994e-14
4620.07 4.0061e-14
4622.8 3.8341e-14
4625.53 3.7981e-14
4628.26 3.9787e-14
4630.99 4.109e-14
4633.72 3.9475e-14
4636.45 4.023e-14
4639.19 3.4551e-14
4641.92 3.6692e-14
4644.65 3.8988e-14
4647.38 3.7056e-14
4650.11 3.7655e-14
4652.84 3.9186e-14
4655.57 3.9784e-14
4658.3 4.0869e-14
4661.03 4.0487e-14
4663.76 3.9906e-14
4666.49 3.8301e-14
4669.22 3.6843e-14
4671.95 3.4169e-14
4674.68 3.5583e-14
4677.41 3.718e-14
4680.14 3.3329e-14
4682.87 3.7315e-14
4685.6 3.8566e-14
4688.33 4.1011e-14
4691.06 4.1561e-14
4693.8 3.7819e-14
4696.53 3.8058e-14
4699.26 3.8301e-14
4701.99 3.5509e-14
4704.72 3.6996e-14
4707.45 3.5399e-14
4710.18 3.4913e-14
4712.91 3.5563e-14
4715.64 3.9317e-14
4718.37 3.8413e-14
4721.1 4.0587e-14
4723.83 3.9404e-14
4726.56 3.8804e-14
4729.29 3.6662e-14
4732.02 3.6662e-14
4734.75 3.8631e-14
4737.48 3.8363e-14
4740.21 3.8245e-14
4742.94 3.6515e-14
4745.68 3.8699e-14
4748.41 3.9253e-14
4751.14 4.1739e-14
4753.87 3.9266e-14
4756.6 3.7392e-14
4759.33 3.8108e-14
4762.06 3.6993e-14
4764.79 3.8613e-14
4767.52 3.6256e-14
4770.25 3.4896e-14
4772.98 3.5269e-14
4775.71 3.9064e-14
4778.44 3.9115e-14
4781.17 3.9258e-14
4783.9 3.8947e-14
4786.63 3.4223e-14
4789.36 3.7779e-14
4792.09 3.6335e-14
4794.82 3.5364e-14
4797.55 3.8514e-14
4800.29 3.72e-14
4803.02 3.7952e-14
4805.75 3.526e-14
4808.48 3.7716e-14
4811.21 3.7933e-14
4813.94 4.0144e-14
4816.67 4.0615e-14
4819.4 3.8408e-14
4822.13 3.6382e-14
4824.86 3.996e-14
4827.59 3.7442e-14
4830.32 3.9739e-14
4833.05 3.8189e-14
4835.78 3.7104e-14
4838.51 3.5534e-14
4841.24 4.0411e-14
4843.97 3.6428e-14
4846.7 3.8106e-14
4849.43 3.6701e-14
4852.17 3.8305e-14
4854.9 3.7723e-14
4857.63 4.4172e-14
4860.36 5.103e-14
4863.09 6.2776e-14
4865.82 5.7984e-14
4868.55 4.9067e-14
4871.28 3.9e-14
4874.01 3.7039e-14
4876.74 3.5554e-14
4879.47 3.7199e-14
4882.2 3.5745e-14
4884.93 3.3998e-14
4887.66 3.548e-14
4890.39 3.6228e-14
4893.12 3.6112e-14
4895.85 3.6633e-14
4898.58 3.6552e-14
4901.31 3.8481e-14
4904.04 3.6594e-14
4906.78 3.7071e-14
4909.51 3.8362e-14
4912.24 3.4824e-14
4914.97 3.5911e-14
4917.7 3.5219e-14
4920.43 3.1522e-14
4923.16 3.3997e-14
4925.89 3.6698e-14
4928.62 3.755e-14
4931.35 3.6776e-14
4934.08 3.504e-14
4936.81 3.5738e-14
4939.54 3.6391e-14
4942.27 3.3442e-14
4945.0 3.7141e-14
4947.73 3.6964e-14
4950.46 3.7964e-14
4953.19 3.8916e-14
4955.92 4.1274e-14
4958.65 4.1827e-14
4961.39 4.3546e-14
4964.12 3.9724e-14
4966.85 3.9603e-14
4969.58 3.8077e-14
4972.31 3.922e-14
4975.04 3.6875e-14
4977.77 3.817e-14
4980.5 3.9401e-14
4983.23 3.5025e-14
4985.96 3.4706e-14
4988.69 3.549e-14
4991.42 3.4411e-14
4994.15 3.5442e-14
4996.88 3.7107e-14
4999.61 3.7861e-14
5002.34 4.046e-14
5005.07 4.576e-14
5007.8 5.4178e-14
5010.53 5.331e-14
5013.27 4.7144e-14
5016.0 4.027e-14
5018.73 3.2435e-14
5021.46 3.3138e-14
5024.19 3.4603e-14
5026.92 3.432e-14
5029.65 3.7231e-14
5032.38 3.7387e-14
5035.11 3.8011e-14
5037.84 3.6054e-14
5040.57 3.3686e-14
5043.3 3.1156e-14
5046.03 3.5002e-14
5048.76 3.4273e-14
5051.49 3.4538e-14
5054.22 3.6862e-14
5056.95 3.6199e-14
5059.68 3.5854e-14
5062.41 3.85e-14
5065.14 3.6046e-14
5067.88 3.539e-14
5070.61 3.6138e-14
5073.34 3.5178e-14
5076.07 3.4101e-14
5078.8 3.8026e-14
5081.53 3.7758e-14
5084.26 3.5374e-14
5086.99 3.3518e-14
5089.72 3.5125e-14
5092.45 3.6379e-14
5095.18 3.8041e-14
5097.91 3.748e-14
5100.64 3.6771e-14
5103.37 3.5371e-14
5106.1 3.5131e-14
5108.83 3.7388e-14
5111.56 3.3748e-14
5114.29 3.4951e-14
5117.02 3.7018e-14
5119.75 3.8534e-14
5122.49 3.4991e-14
5125.22 3.5772e-14
5127.95 3.2241e-14
5130.68 3.4681e-14
5133.41 3.3868e-14
5136.14 3.5695e-14
5138.87 3.5768e-14
5141.6 3.5423e-14
5144.33 3.5145e-14
5147.06 3.2672e-14
5149.79 3.4638e-14
5152.52 3.4533e-14
5155.25 3.6268e-14
5157.98 3.2454e-14
5160.71 3.4602e-14
5163.44 3.8254e-14
5166.17 3.5467e-14
5168.9 2.9908e-14
5171.63 2.9368e-14
5174.37 3.0119e-14
5177.1 3.2541e-14
5179.83 3.2433e-14
5182.56 3.2495e-14
5185.29 3.3928e-14
5188.02 3.2487e-14
5190.75 3.2834e-14
5193.48 3.4969e-14
5196.21 3.4666e-14
5198.94 3.6641e-14
5201.67 3.6501e-14
5204.4 3.6782e-14
5207.13 3.6573e-14
5209.86 3.2768e-14
5212.59 3.4442e-14
5215.32 3.4056e-14
5218.05 3.4263e-14
5220.78 3.4548e-14
5223.51 3.4935e-14
5226.24 3.4904e-14
5228.98 3.3606e-14
5231.71 3.5754e-14
5234.44 3.5108e-14
5237.17 3.4342e-14
5239.9 3.728e-14
5242.63 3.6424e-14
5245.36 3.6504e-14
5248.09 3.6729e-14
5250.82 3.4554e-14
5253.55 3.7404e-14
5256.28 3.4146e-14
5259.01 3.3953e-14
5261.74 3.56e-14
5264.47 3.3458e-14
5267.2 3.535e-14
5269.93 3.0783e-14
5272.66 3.0498e-14
5275.39 3.4193e-14
5278.12 3.4949e-14
5280.86 3.4099e-14
5283.59 3.4513e-14
5286.32 3.497e-14
5289.05 3.4423e-14
5291.78 3.8138e-14
5294.51 3.7904e-14
5297.24 3.562e-14
5299.97 3.6377e-14
5302.7 3.8699e-14
5305.43 3.5065e-14
5308.16 3.7126e-14
5310.89 4.1552e-14
5313.62 3.8384e-14
5316.35 3.407e-14
5319.08 3.5157e-14
5321.81 3.5219e-14
5324.54 3.4836e-14
5327.27 3.3372e-14
5330.0 3.5529e-14
5332.73 3.3985e-14
5335.47 3.5802e-14
5338.2 3.6915e-14
5340.93 3.6891e-14
5343.66 3.6335e-14
5346.39 3.7454e-14
5349.12 3.7212e-14
5351.85 3.7793e-14
5354.58 3.6439e-14
5357.31 3.452e-14
5360.04 3.8953e-14
5362.77 3.8203e-14
5365.5 3.7512e-14
5368.23 3.6777e-14
5370.96 3.6291e-14
5373.69 3.7122e-14
5376.42 3.4238e-14
5379.15 3.4835e-14
5381.88 3.5404e-14
5384.61 3.5999e-14
5387.34 3.6293e-14
5390.08 3.7283e-14
5392.81 3.6874e-14
5395.54 3.53e-14
5398.27 3.5333e-14
5401.0 3.2332e-14
5403.73 3.5253e-14
5406.46 3.45e-14
5409.19 3.6316e-14
5411.92 3.7534e-14
5414.65 3.6317e-14
5417.38 3.6115e-14
5420.11 4.0001e-14
5422.84 3.7419e-14
5425.57 3.7954e-14
5428.3 3.6551e-14
5431.03 3.4184e-14
5433.76 3.5449e-14
5436.49 3.5483e-14
5439.22 3.4841e-14
5441.96 3.4339e-14
5444.69 3.5299e-14
5447.42 3.6096e-14
5450.15 3.6627e-14
5452.88 3.6022e-14
5455.61 3.5303e-14
5458.34 3.4995e-14
5461.07 3.7019e-14
