# col1 col2
# An Atlas of Galaxy Spectral Energy Distributions from the Ultraviolet to the Mid-Infrared
# Brown et al. (2014)
# http://dx.doi.org/10.5072/03/529D3551F0117
# 
# Column 1 : Restframe Wavelength (Angstrom)
# Column 2 : Flux per unit wavelength (ergs/s/cm^2/Angstrom)
# Column 3 : Observed wavelength (Angstrom)
# Column 4 : Source (0 = model, 1 = Optical Spectrum, 2 = Akari, 3 = Spitzer IRS)
# 
102.0 3.3848e-24
103.9 4.4314e-24
106.08 5.9777e-24
108.05 8.1384e-24
110.06 1.3138e-23
113.93 2.1804e-23
117.93 3.377e-23
120.95 1.229e-22
124.92 1.8178e-22
126.95 2.1554e-22
128.12 2.3743e-22
131.11 3.0029e-22
132.01 3.6019e-22
133.85 4.1738e-22
136.97 5.7748e-22
140.16 7.1209e-22
143.09 1.7082e-21
147.1 4.0044e-21
150.88 5.0412e-21
155.1 6.3612e-21
159.08 8.0082e-21
162.04 9.4305e-21
165.81 1.1736e-20
170.07 1.4274e-20
172.83 1.654e-20
176.86 1.9886e-20
180.14 2.2727e-20
181.81 2.4805e-20
186.05 2.9345e-20
190.82 3.5937e-20
193.92 4.0601e-20
197.98 4.7156e-20
202.12 5.4643e-20
204.94 6.0889e-20
210.19 6.9428e-20
216.08 8.7607e-20
220.1 9.9664e-20
223.16 1.0828e-19
226.79 1.2261e-19
229.94 1.9749e-19
234.22 3.4398e-19
240.23 4.7374e-19
245.82 4.995e-19
252.13 5.8148e-19
256.81 5.2667e-19
259.79 6.3905e-19
264.01 7.1046e-19
268.92 7.6127e-19
273.92 8.1196e-19
279.01 8.6405e-19
284.2 9.2159e-19
290.15 9.4741e-19
296.22 1.0317e-18
301.04 1.0606e-18
308.05 1.1629e-18
318.14 1.3108e-18
327.81 1.434e-18
337.77 1.5472e-18
348.03 1.6578e-18
356.96 1.7682e-18
366.12 1.8991e-18
374.64 1.9977e-18
385.14 2.0443e-18
395.02 2.2261e-18
405.15 2.358e-18
413.64 2.4465e-18
422.3 2.5092e-18
430.15 2.5736e-18
441.18 2.7073e-18
451.46 2.7896e-18
459.85 2.848e-18
469.48 2.9345e-18
480.42 3.0376e-18
490.48 3.0799e-18
499.6 3.2102e-18
506.55 3.4319e-18
512.41 5.0996e-18
519.54 5.291e-18
530.42 5.5149e-18
540.28 5.4518e-18
550.33 6.7071e-18
560.56 7.7364e-18
569.67 8.6206e-18
580.26 8.4828e-18
589.68 1.0035e-17
600.65 1.0436e-17
610.41 1.1872e-17
620.33 1.3821e-17
630.4 1.5015e-17
640.65 1.5507e-17
649.56 1.7601e-17
658.6 1.8816e-17
664.69 2.0116e-17
675.49 2.0823e-17
684.89 2.0967e-17
694.42 2.6579e-17
705.7 2.5855e-17
715.52 3.1299e-17
725.47 3.3002e-17
735.56 3.4717e-17
745.8 3.9404e-17
754.43 4.2514e-17
764.93 4.5555e-17
775.57 5.0296e-17
784.55 5.4769e-17
795.46 5.8015e-17
804.67 6.1311e-17
815.87 6.4348e-17
825.31 7.1209e-17
834.87 6.1311e-17
844.54 7.7364e-17
854.32 8.101e-17
864.21 8.8011e-17
874.22 9.5397e-17
884.34 1.0484e-16
894.58 1.1182e-16
904.94 1.139e-16
915.42 1.8346e-16
926.02 1.2518e-15
934.59 2.8611e-15
945.41 6.0749e-15
954.16 9.807e-15
965.21 1.2093e-14
974.14 2.0919e-15
985.42 1.3108e-14
994.53 1.3569e-14
1006.05 1.921e-14
1015.36 1.728e-14
1024.75 5.4643e-15
1034.24 1.1549e-14
1043.81 2.515e-14
1055.89 2.6034e-14
1065.66 2.1259e-14
1075.52 2.5559e-14
1085.47 2.0302e-14
1095.52 2.6887e-14
1105.66 2.6702e-14
1115.89 2.5914e-14
1126.21 2.4577e-14
1134.02 3.0237e-14
1144.51 2.7576e-14
1155.1 2.9753e-14
1165.79 3.1662e-14
1173.87 2.4521e-14
1184.73 3.087e-14
1195.69 1.8558e-14
1203.98 1.3917e-14
1215.12 6.4645e-15
1226.36 1.744e-14
1234.87 3.1662e-14
1246.29 3.652e-14
1254.93 3.5119e-14
1263.63 2.8349e-14
1275.32 3.9132e-14
1284.16 4.1547e-14
1296.04 3.3615e-14
1305.03 3.2699e-14
1314.07 4.0882e-14
1326.23 3.9586e-14
1335.43 3.4877e-14
1344.68 4.2222e-14
1354.0 4.0977e-14
1366.53 3.6858e-14
1376.0 3.9404e-14
1385.54 4.0414e-14
1395.15 3.7371e-14
1404.82 3.8774e-14
1414.55 3.8154e-14
1424.36 3.9404e-14
1434.23 3.8953e-14
1440.85 4.1261e-14
1447.5 4.2028e-14
1454.19 4.1071e-14
1464.27 3.8507e-14
1474.42 3.8154e-14
1484.63 3.8863e-14
1494.93 3.9768e-14
1505.29 3.8154e-14
1512.24 3.4637e-14
1515.72 3.7029e-14
1526.23 3.5689e-14
1533.27 3.1881e-14
1543.9 3.5525e-14
1554.6 3.3461e-14
1565.38 3.3615e-14
1576.23 3.5525e-14
1583.51 3.7199e-14
1594.48 3.8242e-14
1605.53 3.7114e-14
1616.66 3.7544e-14
1624.13 3.5607e-14
1635.38 3.7544e-14
1646.72 3.8066e-14
1654.32 3.5119e-14
1665.79 3.8507e-14
1673.48 3.4877e-14
1677.34 3.8154e-14
1685.08 4.0044e-14
1696.76 3.7978e-14
1704.59 3.6437e-14
1716.41 3.4717e-14
1724.33 3.4557e-14
1736.28 3.6605e-14
1744.29 3.5854e-14
1756.39 3.8242e-14
1764.49 3.5038e-14
1776.72 3.6437e-14
1784.92 3.7029e-14
1793.16 3.9132e-14
1805.59 3.8863e-14
1813.93 3.6437e-14
1826.5 3.7029e-14
1834.93 3.5771e-14
1843.4 3.3307e-14
1856.18 3.3154e-14
1864.75 3.4083e-14
1873.35 3.6858e-14
1886.34 3.4319e-14
1895.05 3.3002e-14
1903.79 3.4957e-14
1916.99 3.377e-14
1925.84 3.3307e-14
1934.73 3.4319e-14
1943.66 3.5525e-14
1957.13 3.3538e-14
1966.16 3.6353e-14
1975.24 3.7285e-14
1984.36 3.5444e-14
1993.52 3.4398e-14
2002.72 3.5362e-14
2016.6 3.424e-14
2025.91 3.5937e-14
2035.26 3.424e-14
2044.65 3.5281e-14
2054.09 3.377e-14
2063.57 3.424e-14
2073.1 3.6019e-14
2077.88 3.4637e-14
2082.67 3.5689e-14
2097.1 3.3926e-14
2106.78 3.4398e-14
2116.51 3.4557e-14
2126.28 3.5119e-14
2136.09 3.2926e-14
2145.95 3.377e-14
2155.86 3.4797e-14
2165.81 3.377e-14
2175.8 3.3461e-14
2185.85 3.3002e-14
2195.94 3.4398e-14
2206.07 3.3461e-14
2216.25 3.2176e-14
2226.48 3.1084e-14
2236.76 3.3154e-14
2247.09 3.1735e-14
2257.46 3.0728e-14
2262.66 3.1299e-14
2273.11 3.2174e-14
2283.6 3.2769e-14
2294.14 3.1364e-14
2304.73 3.1074e-14
2315.37 2.9948e-14
2326.05 2.4397e-14
2336.79 2.8399e-14
2347.58 2.7623e-14
2352.99 2.9326e-14
2363.85 2.743e-14
2374.76 2.8131e-14
2385.72 2.6433e-14
2396.73 2.8062e-14
2402.26 2.6984e-14
2413.35 2.7483e-14
2424.49 2.8644e-14
2435.68 2.7479e-14
2446.92 2.8971e-14
2452.56 2.8376e-14
2463.88 2.8308e-14
2475.25 2.7408e-14
2486.68 2.8434e-14
2492.41 2.7153e-14
2503.91 2.9294e-14
2515.47 2.6962e-14
2527.08 2.6468e-14
2532.91 2.6711e-14
2544.6 2.6282e-14
2556.35 2.7645e-14
2562.24 2.7202e-14
2574.07 2.8482e-14
2585.95 2.8283e-14
2597.88 2.8151e-14
2603.87 2.7194e-14
2615.89 2.7005e-14
2627.97 2.7695e-14
2634.02 2.8144e-14
2646.18 2.9878e-14
2652.28 3.0014e-14
2664.52 2.8203e-14
2676.82 2.9124e-14
2682.99 2.8989e-14
2695.38 2.8067e-14
2707.82 2.852e-14
2714.06 2.7487e-14
2726.59 2.7422e-14
2732.87 2.845e-14
2745.49 2.5765e-14
2758.16 2.6001e-14
2764.52 2.6729e-14
2777.28 2.7665e-14
2783.68 2.691e-14
2796.53 2.3008e-14
2802.98 2.437e-14
2815.92 2.7531e-14
2822.41 2.8041e-14
2835.44 2.7087e-14
2841.97 2.653e-14
2855.09 2.6164e-14
2868.27 2.752e-14
2874.88 2.733e-14
2888.15 2.739e-14
2894.81 2.72e-14
2908.17 2.8545e-14
2928.33 2.7763e-14
2948.63 2.7378e-14
2969.07 2.7564e-14
2989.65 2.7497e-14
3010.37 2.7683e-14
3031.24 2.7552e-14
3052.25 2.7421e-14
3073.4 2.7291e-14
3087.59 2.7351e-14
3108.99 2.7096e-14
3130.54 2.6844e-14
3152.24 2.6839e-14
3166.79 2.6713e-14
3188.74 2.5802e-14
3210.85 2.6278e-14
3233.1 2.5558e-14
3248.03 2.6211e-14
3270.54 2.6571e-14
3293.21 2.6444e-14
3308.41 2.632e-14
3323.68 2.6136e-14
3331.35 2.6195e-14
3339.02 2.5072e-14
3346.72 2.6072e-14
3354.44 2.5243e-14
3362.17 2.4895e-14
3369.92 2.4666e-14
3377.69 2.4608e-14
3385.48 2.518e-14
3393.28 2.5943e-14
3401.1 2.6853e-14
3408.94 2.506e-14
3416.8 2.5465e-14
3424.68 2.6117e-14
3432.57 2.6724e-14
3440.48 2.5875e-14
3448.42 2.4823e-14
3456.37 2.4707e-14
3464.33 2.4033e-14
3472.32 2.528e-14
3480.32 2.4308e-14
3488.35 2.5103e-14
3496.39 2.4757e-14
3504.45 2.4756e-14
3512.53 2.4471e-14
3520.62 2.5097e-14
3528.74 2.4077e-14
3536.87 2.5152e-14
3545.03 2.5559e-14
3553.2 2.5676e-14
3561.39 2.5498e-14
3569.6 2.4237e-14
3577.83 2.3629e-14
3586.08 2.2984e-14
3594.34 2.3735e-14
3602.63 2.491e-14
3610.94 2.4063e-14
3616.77 2.5747e-14
3619.48 2.4089e-14
3622.18 2.5343e-14
3624.88 2.656e-14
3627.59 2.5287e-14
3630.29 2.2707e-14
3632.99 2.4181e-14
3635.7 2.2915e-14
3638.4 2.2523e-14
3641.11 2.5606e-14
3643.81 2.6152e-14
3646.51 2.448e-14
3649.22 2.4912e-14
3651.92 2.4829e-14
3654.62 2.4453e-14
3657.33 2.3825e-14
3660.03 2.3885e-14
3662.73 2.5175e-14
3665.44 2.3199e-14
3668.14 2.3603e-14
3670.85 2.6196e-14
3673.55 2.4475e-14
3676.25 2.3129e-14
3678.96 2.1943e-14
3681.66 2.2895e-14
3684.36 2.3752e-14
3687.07 2.4331e-14
3689.77 2.4429e-14
3692.47 2.2981e-14
3695.18 2.4021e-14
3697.88 2.312e-14
3700.59 2.3895e-14
3703.29 2.2925e-14
3705.99 2.3469e-14
3708.7 2.2841e-14
3711.4 2.5111e-14
3714.1 2.6158e-14
3716.81 2.7056e-14
3719.51 2.9914e-14
3722.21 4.0237e-14
3724.92 6.1797e-14
3727.62 8.0763e-14
3730.33 8.3351e-14
3733.03 6.5475e-14
3735.73 4.4464e-14
3738.44 3.2182e-14
3741.14 2.8793e-14
3743.84 2.728e-14
3746.55 2.6324e-14
3749.25 2.6423e-14
3751.96 2.5085e-14
3754.66 2.6169e-14
3757.36 2.806e-14
3760.07 2.8886e-14
3762.77 2.9208e-14
3765.47 2.9866e-14
3768.18 2.7251e-14
3770.88 2.4961e-14
3773.58 2.5458e-14
3776.29 2.9515e-14
3778.99 3.174e-14
3781.7 3.3322e-14
3784.4 3.3461e-14
3787.1 3.3507e-14
3789.81 3.2884e-14
3792.51 3.0885e-14
3795.21 2.9693e-14
3797.92 2.5494e-14
3800.62 2.7401e-14
3803.32 2.924e-14
3806.03 3.0926e-14
3808.73 3.3998e-14
3811.44 3.5459e-14
3814.14 3.4483e-14
3816.84 3.566e-14
3819.55 3.566e-14
3822.25 3.4732e-14
3824.95 3.2727e-14
3827.66 2.9983e-14
3830.36 2.9864e-14
3833.07 2.7979e-14
3835.77 2.6691e-14
3838.47 2.6927e-14
3841.18 2.7963e-14
3843.88 3.1608e-14
3846.58 3.2602e-14
3849.29 3.52e-14
3851.99 3.4429e-14
3854.69 3.5847e-14
3857.4 3.7834e-14
3860.1 3.854e-14
3862.81 3.9067e-14
3865.51 4.0835e-14
3868.21 4.2057e-14
3870.92 4.3581e-14
3873.62 4.1058e-14
3876.32 3.9171e-14
3879.03 3.567e-14
3881.73 3.3846e-14
3884.43 3.1901e-14
3887.14 2.9669e-14
3889.84 2.9002e-14
3892.55 2.89e-14
3895.25 2.9651e-14
3897.95 3.0153e-14
3900.66 3.2874e-14
3903.36 3.5866e-14
3906.06 3.5952e-14
3908.77 3.7186e-14
3911.47 3.9225e-14
3914.17 3.9642e-14
3916.88 3.7859e-14
3919.58 3.7887e-14
3922.29 3.5864e-14
3924.99 3.7e-14
3927.69 3.7011e-14
3930.4 3.5466e-14
3933.1 3.3695e-14
3935.8 3.3165e-14
3938.51 3.4675e-14
3941.21 3.7641e-14
3943.92 3.7536e-14
3946.62 3.8751e-14
3949.32 3.8748e-14
3952.03 3.8653e-14
3954.73 3.8098e-14
3957.43 3.8409e-14
3960.14 3.6068e-14
3962.84 3.4571e-14
3965.54 3.1055e-14
3968.25 3.0594e-14
3970.95 2.962e-14
3973.66 3.0409e-14
3976.36 3.1609e-14
3979.06 3.2291e-14
3981.77 3.5726e-14
3984.47 3.7605e-14
3987.17 3.8091e-14
3989.88 3.903e-14
3992.58 4.1006e-14
3995.28 4.188e-14
3997.99 4.2017e-14
4000.69 4.191e-14
4003.4 4.0524e-14
4006.1 4.165e-14
4008.8 4.1301e-14
4011.51 4.1039e-14
4014.21 4.0601e-14
4016.91 4.205e-14
4019.62 4.0744e-14
4022.32 3.936e-14
4025.03 4.2138e-14
4027.73 4.0983e-14
4030.43 4.0617e-14
4033.14 4.1007e-14
4035.84 4.0598e-14
4038.54 3.9496e-14
4041.25 4.1758e-14
4043.95 4.0749e-14
4046.65 4.0257e-14
4049.36 3.933e-14
4052.06 3.8412e-14
4054.77 3.8976e-14
4057.47 3.8152e-14
4060.17 3.9685e-14
4062.88 3.8198e-14
4065.58 3.8233e-14
4068.28 3.9101e-14
4070.99 3.832e-14
4073.69 3.8088e-14
4076.39 3.8244e-14
4079.1 3.8558e-14
4081.8 3.7765e-14
4084.51 3.8568e-14
4087.21 3.7451e-14
4089.91 3.579e-14
4092.62 3.6044e-14
4095.32 3.4207e-14
4098.02 3.2964e-14
4100.73 3.493e-14
4103.43 3.5282e-14
4106.13 3.3213e-14
4108.84 3.0574e-14
4111.54 3.3182e-14
4114.25 3.5066e-14
4116.95 3.5635e-14
4119.65 3.7149e-14
4122.36 3.8297e-14
4125.06 3.8977e-14
4127.76 3.9836e-14
4130.47 3.984e-14
4133.17 3.8801e-14
4135.88 4.0219e-14
4138.58 3.9885e-14
4141.28 4.0931e-14
4143.99 4.0967e-14
4146.69 4.1077e-14
4149.39 3.9828e-14
4152.1 4.1087e-14
4154.8 4.1556e-14
4157.5 4.1145e-14
4160.21 4.0811e-14
4162.91 4.1455e-14
4165.62 4.1369e-14
4168.32 4.0749e-14
4171.02 4.113e-14
4173.73 3.9375e-14
4176.43 3.931e-14
4179.13 3.8457e-14
4181.84 3.9609e-14
4184.54 4.0426e-14
4187.24 3.9065e-14
4189.95 3.9434e-14
4192.65 4.0108e-14
4195.36 3.9762e-14
4198.06 3.9137e-14
4200.76 3.9115e-14
4203.47 3.9706e-14
4206.17 3.913e-14
4208.87 3.8835e-14
4211.58 3.9287e-14
4214.28 4.0262e-14
4216.98 3.9714e-14
4219.69 3.9255e-14
4222.39 3.9246e-14
4225.1 3.9417e-14
4227.8 3.9163e-14
4230.5 3.8996e-14
4233.21 3.8572e-14
4235.91 3.8785e-14
4238.61 3.8823e-14
4241.32 3.9416e-14
4244.02 3.9321e-14
4246.73 3.8594e-14
4249.43 3.8808e-14
4252.13 3.8201e-14
4254.84 3.7887e-14
4257.54 3.8072e-14
4260.24 3.9084e-14
4262.95 3.7997e-14
4265.65 3.7448e-14
4268.35 3.737e-14
4271.06 3.8049e-14
4273.76 3.8757e-14
4276.47 3.7938e-14
4279.17 3.8653e-14
4281.87 3.7932e-14
4284.58 3.7975e-14
4287.28 3.7921e-14
4289.98 3.7647e-14
4292.69 3.7104e-14
4295.39 3.6507e-14
4298.09 3.5821e-14
4300.8 3.6371e-14
4303.5 3.5339e-14
4306.21 3.5007e-14
4308.91 3.5603e-14
4311.61 3.5835e-14
4314.32 3.5795e-14
4317.02 3.7299e-14
4319.72 3.7331e-14
4322.43 3.7213e-14
4325.13 3.6919e-14
4327.84 3.6206e-14
4330.54 3.5597e-14
4333.24 3.4066e-14
4335.95 3.5584e-14
4338.65 3.8505e-14
4341.35 4.1257e-14
4344.06 4.1042e-14
4346.76 3.6904e-14
4349.46 3.4296e-14
4352.17 3.4874e-14
4354.87 3.5497e-14
4357.58 3.7142e-14
4360.28 3.8093e-14
4362.98 3.9061e-14
4365.69 4.0221e-14
4368.39 3.8358e-14
4371.09 3.9061e-14
4373.8 3.8887e-14
4376.5 3.7988e-14
4379.2 3.8429e-14
4381.91 3.7836e-14
4384.61 3.7376e-14
4387.32 3.7123e-14
4390.02 3.7512e-14
4392.72 3.7646e-14
4395.43 3.8313e-14
4398.13 3.9148e-14
4400.83 3.8805e-14
4403.54 3.8281e-14
4406.24 3.7608e-14
4408.94 3.7881e-14
4411.65 3.7212e-14
4414.35 3.8016e-14
4417.06 3.9063e-14
4419.76 3.8921e-14
4422.46 3.9325e-14
4425.17 3.8512e-14
4427.87 3.7348e-14
4430.57 3.7716e-14
4433.28 3.794e-14
4435.98 3.7747e-14
4438.69 3.826e-14
4441.39 3.8805e-14
4444.09 3.8481e-14
4446.8 3.8702e-14
4449.5 3.8183e-14
4452.2 3.7726e-14
4454.91 3.8179e-14
4457.61 3.7733e-14
4460.31 3.8617e-14
4463.02 3.8219e-14
4465.72 3.7255e-14
4468.43 3.7581e-14
4471.13 3.8619e-14
4473.83 3.9063e-14
4476.54 3.9552e-14
4479.24 3.9067e-14
4481.94 3.8918e-14
4484.65 3.8348e-14
4487.35 3.8117e-14
4490.05 3.8188e-14
4492.76 3.9344e-14
4495.46 3.9576e-14
4498.17 3.9065e-14
4500.87 3.8506e-14
4503.57 3.9557e-14
4506.28 3.9261e-14
4508.98 3.9403e-14
4511.68 4.0393e-14
4514.39 3.9795e-14
4517.09 3.971e-14
4519.79 3.9477e-14
4522.5 3.9097e-14
4525.2 3.8143e-14
4527.91 3.911e-14
4530.61 3.7482e-14
4533.31 3.7747e-14
4536.02 3.918e-14
4538.72 3.8974e-14
4541.42 3.8533e-14
4544.13 3.8751e-14
4546.83 3.8466e-14
4549.54 3.911e-14
4552.24 3.7132e-14
4554.94 3.7901e-14
4557.65 3.8326e-14
4560.35 3.8544e-14
4563.05 3.8696e-14
4565.76 3.9551e-14
4568.46 3.8402e-14
4571.16 3.9486e-14
4573.87 3.8893e-14
4576.57 3.8864e-14
4579.28 3.7481e-14
4581.98 3.763e-14
4584.68 3.8189e-14
4587.39 3.7731e-14
4590.09 3.7583e-14
4592.79 3.7533e-14
4595.5 3.8587e-14
4598.2 3.8116e-14
4600.9 3.7296e-14
4603.61 3.7467e-14
4606.31 3.7885e-14
4609.02 3.8459e-14
4611.72 3.834e-14
4614.42 3.9632e-14
4617.13 3.8634e-14
4619.83 3.9019e-14
4622.53 3.8903e-14
4625.24 3.9064e-14
4627.94 3.8474e-14
4630.65 3.8836e-14
4633.35 3.8857e-14
4636.05 3.9035e-14
4638.76 3.8815e-14
4641.46 3.8549e-14
4644.16 3.8576e-14
4646.87 3.8895e-14
4649.57 3.9e-14
4652.27 3.8623e-14
4654.98 3.8765e-14
4657.68 4.0233e-14
4660.39 3.9701e-14
4663.09 3.9768e-14
4665.79 3.9263e-14
4668.5 3.9449e-14
4671.2 3.9359e-14
4673.9 3.9394e-14
4676.61 3.8917e-14
4679.31 3.9635e-14
4682.01 3.9076e-14
4684.72 4.0066e-14
4687.42 3.9874e-14
4690.13 3.9548e-14
4692.83 3.9196e-14
4695.53 3.9024e-14
4698.24 3.8941e-14
4700.94 3.8862e-14
4703.64 3.9013e-14
4706.35 3.7905e-14
4709.05 3.762e-14
4711.75 3.775e-14
4714.46 3.782e-14
4717.16 3.8348e-14
4719.87 3.7518e-14
4722.57 3.8571e-14
4725.27 3.7918e-14
4727.98 3.769e-14
4730.68 3.8175e-14
4733.38 3.7569e-14
4736.09 3.6537e-14
4738.79 3.7473e-14
4741.5 3.6786e-14
4744.2 3.7036e-14
4746.9 3.6306e-14
4749.61 3.6515e-14
4752.31 3.7442e-14
4755.01 3.6269e-14
4757.72 3.6146e-14
4760.42 3.724e-14
4763.12 3.7344e-14
4765.83 3.5815e-14
4768.53 3.5222e-14
4771.24 3.5182e-14
4773.94 3.6058e-14
4776.64 3.6302e-14
4779.35 3.6932e-14
4782.05 3.6965e-14
4784.75 3.6088e-14
4787.46 3.6249e-14
4790.16 3.5125e-14
4792.86 3.6173e-14
4795.57 3.6881e-14
4798.27 3.5966e-14
4800.98 3.5931e-14
4803.68 3.6032e-14
4806.38 3.5791e-14
4809.09 3.5241e-14
4811.79 3.5769e-14
4814.49 3.6197e-14
4817.2 3.6339e-14
4819.9 3.591e-14
4822.61 3.642e-14
4825.31 3.5429e-14
4828.01 3.4872e-14
4830.72 3.4681e-14
4833.42 3.4848e-14
4836.12 3.571e-14
4838.83 3.5726e-14
4841.53 3.556e-14
4844.23 3.4254e-14
4846.94 3.4231e-14
4849.64 3.3883e-14
4852.35 3.4264e-14
4855.05 3.5978e-14
4857.75 4.36e-14
4860.46 5.667e-14
4863.16 6.4714e-14
4865.86 5.9164e-14
4868.57 4.6044e-14
4871.27 3.6849e-14
4873.97 3.3132e-14
4876.68 3.325e-14
4879.38 3.377e-14
4882.09 3.3842e-14
4884.79 3.4561e-14
4887.49 3.4543e-14
4890.2 3.4466e-14
4892.9 3.4503e-14
4895.6 3.5611e-14
4898.31 3.6587e-14
4901.01 3.5703e-14
4903.71 3.5341e-14
4906.42 3.5374e-14
4909.12 3.5484e-14
4911.83 3.524e-14
4914.53 3.4897e-14
4917.23 3.5469e-14
4919.94 3.4919e-14
4922.64 3.4354e-14
4925.34 3.4452e-14
4928.05 3.5151e-14
4930.75 3.5788e-14
4933.46 3.5886e-14
4936.16 3.4965e-14
4938.86 3.5106e-14
4941.57 3.4443e-14
4944.27 3.4958e-14
4946.97 3.5775e-14
4949.68 3.6252e-14
4952.38 3.7129e-14
4955.08 4.1342e-14
4957.79 4.7063e-14
4960.49 4.9925e-14
4963.2 4.74e-14
4965.9 4.3853e-14
4968.6 3.8513e-14
4971.31 3.5636e-14
4974.01 3.5122e-14
4976.71 3.4595e-14
4979.42 3.517e-14
4982.12 3.4423e-14
4984.82 3.4578e-14
4987.53 3.4947e-14
4990.23 3.5178e-14
4992.94 3.6494e-14
4995.64 3.7688e-14
4998.34 3.8938e-14
5001.05 4.4249e-14
5003.75 5.7734e-14
5006.45 7.5395e-14
5009.16 8.4128e-14
5011.86 7.5603e-14
5014.57 5.5651e-14
5017.27 4.1247e-14
5019.97 3.5632e-14
5022.68 3.5266e-14
5025.38 3.4984e-14
5028.08 3.5478e-14
5030.79 3.5192e-14
5033.49 3.5573e-14
5036.19 3.4049e-14
5038.9 3.4004e-14
5041.6 3.3786e-14
5044.31 3.4519e-14
5047.01 3.4798e-14
5049.71 3.4833e-14
5052.42 3.3865e-14
5055.12 3.3579e-14
5057.82 3.4753e-14
5060.53 3.5086e-14
5063.23 3.483e-14
5065.93 3.5075e-14
5068.64 3.4303e-14
5071.34 3.3775e-14
5074.05 3.4693e-14
5076.75 3.4176e-14
5079.45 3.4143e-14
5082.16 3.3338e-14
5084.86 3.3646e-14
5087.56 3.4348e-14
5090.27 3.4797e-14
5092.97 3.4599e-14
5095.67 3.5222e-14
5098.38 3.4678e-14
5101.08 3.3862e-14
5103.79 3.3855e-14
5106.49 3.4446e-14
5109.19 3.3872e-14
5111.9 3.3316e-14
5114.6 3.3485e-14
5117.3 3.394e-14
5120.01 3.4203e-14
5122.71 3.4756e-14
5125.42 3.3943e-14
5128.12 3.2653e-14
5130.82 3.31e-14
5133.53 3.3548e-14
5136.23 3.2719e-14
5138.93 3.2875e-14
5141.64 3.251e-14
5144.34 3.3125e-14
5147.04 3.3541e-14
5149.75 3.2837e-14
5152.45 3.2451e-14
5155.16 3.2925e-14
5157.86 3.3317e-14
5160.56 3.3303e-14
5163.27 3.3809e-14
5165.97 3.2875e-14
5168.67 3.1859e-14
5171.38 3.183e-14
5174.08 3.1139e-14
5176.78 3.1746e-14
5179.49 3.2221e-14
5182.19 3.167e-14
5184.9 3.1691e-14
5187.6 3.1467e-14
5190.3 3.1589e-14
5193.01 3.3149e-14
5195.71 3.4355e-14
5198.41 3.4443e-14
5201.12 3.4211e-14
5203.82 3.4041e-14
5206.53 3.3222e-14
5209.23 3.3027e-14
5211.93 3.2675e-14
5214.64 3.2358e-14
5217.34 3.2668e-14
5220.04 3.3454e-14
5222.75 3.3192e-14
5225.45 3.3354e-14
5228.15 3.2188e-14
5230.86 3.2259e-14
5233.56 3.2303e-14
5236.27 3.2799e-14
5238.97 3.315e-14
5241.67 3.3374e-14
5244.38 3.3452e-14
5247.08 3.3999e-14
5249.78 3.3551e-14
5252.49 3.3315e-14
5255.19 3.3264e-14
5257.89 3.3557e-14
5260.6 3.3102e-14
5263.3 3.2662e-14
5266.01 3.1672e-14
5268.71 3.1145e-14
5271.41 3.1421e-14
5274.12 3.2348e-14
5276.82 3.2742e-14
5279.52 3.3213e-14
5282.23 3.3687e-14
5284.93 3.3932e-14
5287.63 3.3776e-14
5290.34 3.4308e-14
5293.04 3.3926e-14
5295.75 3.3593e-14
5298.45 3.2981e-14
5301.15 3.327e-14
5303.86 3.2977e-14
5306.56 3.3065e-14
5309.26 3.3444e-14
5311.97 3.3954e-14
5314.67 3.3653e-14
5317.38 3.3918e-14
5320.08 3.379e-14
5322.78 3.3181e-14
5325.49 3.343e-14
5328.19 3.1652e-14
5330.89 3.1542e-14
5333.6 3.2305e-14
5336.3 3.2917e-14
5339.0 3.3314e-14
5341.71 3.2979e-14
5344.41 3.3494e-14
5347.12 3.3262e-14
5349.82 3.299e-14
5352.52 3.3504e-14
5355.23 3.3773e-14
5357.93 3.2884e-14
5360.63 3.3712e-14
5363.34 3.3291e-14
5366.04 3.2555e-14
5368.74 3.2997e-14
5371.45 3.3956e-14
5374.15 3.2579e-14
5376.86 3.3233e-14
5379.56 3.34e-14
5382.26 3.4398e-14
5384.97 3.3347e-14
5387.67 3.3285e-14
5390.37 3.2545e-14
5393.08 3.2771e-14
5395.78 3.2625e-14
5398.49 3.1737e-14
5401.19 3.2095e-14
5403.89 3.1832e-14
5406.6 3.2369e-14
5409.3 3.2251e-14
5412.0 3.2147e-14
5414.71 3.3116e-14
5417.41 3.2934e-14
5420.11 3.2952e-14
5422.82 3.305e-14
5425.52 3.2959e-14
5428.23 3.2427e-14
