# col1 col2
# An Atlas of Galaxy Spectral Energy Distributions from the Ultraviolet to the Mid-Infrared
# Brown et al. (2014)
# http://dx.doi.org/10.5072/03/529D3551F0117
# 
# Column 1 : Restframe Wavelength (Angstrom)
# Column 2 : Flux per unit wavelength (ergs/s/cm^2/Angstrom)
# Column 3 : Observed wavelength (Angstrom)
# Column 4 : Source (0 = model, 1 = Optical Spectrum, 2 = Akari, 3 = Spitzer IRS)
# 
101.98 1.4869e-24
104.11 2.1246e-24
106.05 3.0852e-24
108.02 4.5424e-24
110.03 7.4522e-24
113.89 1.3973e-23
117.9 2.4394e-23
120.92 1.0846e-22
124.88 1.7111e-22
126.91 2.0715e-22
128.09 2.3243e-22
131.07 3.0219e-22
131.98 3.7695e-22
134.12 4.439e-22
136.93 6.5356e-22
140.12 8.2468e-22
143.05 2.6933e-21
147.06 8.3231e-21
150.83 1.0527e-20
155.06 1.3375e-20
159.04 1.6954e-20
162.0 2.0012e-20
166.15 2.5193e-20
170.02 3.0781e-20
173.18 3.5833e-20
176.81 4.328e-20
180.1 4.9577e-20
182.18 5.4236e-20
186.0 6.4459e-20
191.21 7.9485e-20
193.87 9.0216e-20
197.93 1.0502e-19
202.07 1.2254e-19
204.88 1.3655e-19
210.14 1.5534e-19
216.02 1.9874e-19
220.04 2.2714e-19
223.1 2.4677e-19
227.25 2.8073e-19
229.88 4.5529e-19
234.15 8.2278e-19
240.16 1.1279e-18
245.75 1.1865e-18
252.06 1.3909e-18
256.74 1.2802e-18
259.72 1.5392e-18
263.94 1.7151e-18
268.85 1.842e-18
273.84 1.9692e-18
278.93 2.1052e-18
284.12 2.2454e-18
290.07 2.3083e-18
296.14 2.5251e-18
300.96 2.6441e-18
307.97 2.8926e-18
318.05 3.268e-18
327.72 3.5916e-18
337.68 3.893e-18
347.94 4.1907e-18
356.86 4.4801e-18
366.02 4.8115e-18
375.41 5.0732e-18
385.04 5.2154e-18
394.91 5.6792e-18
405.04 6.0295e-18
413.53 6.2847e-18
422.18 6.4608e-18
430.03 6.6571e-18
441.06 7.0191e-18
451.34 7.2491e-18
459.73 7.4522e-18
470.44 7.7141e-18
480.29 8.0591e-18
490.35 8.2278e-18
499.46 8.6553e-18
506.41 1.0193e-17
512.27 2.4282e-17
520.6 2.6199e-17
530.28 2.8529e-17
540.13 2.8398e-17
550.18 4.3081e-17
560.4 5.3368e-17
569.51 6.2847e-17
580.1 6.1275e-17
589.52 8.0776e-17
600.48 8.7153e-17
610.24 1.0846e-16
620.16 1.2743e-16
630.23 1.4364e-16
640.47 1.4733e-16
649.38 1.7591e-16
658.42 1.9422e-16
664.51 2.0811e-16
675.31 2.1246e-16
684.7 2.1394e-16
694.23 2.9328e-16
705.51 2.8267e-16
715.32 3.5179e-16
725.27 3.7349e-16
735.36 3.9472e-16
745.59 4.6162e-16
754.23 5.0383e-16
764.72 5.4486e-16
775.36 6.0574e-16
784.34 6.6878e-16
795.25 7.0515e-16
804.46 7.4694e-16
815.65 7.8214e-16
825.09 8.7758e-16
834.65 7.003e-16
844.31 9.4034e-16
854.09 9.7788e-16
865.97 1.0698e-15
876.0 1.1649e-15
884.1 1.2921e-15
894.34 1.3813e-15
904.69 1.3877e-15
915.17 2.1993e-15
925.77 1.6915e-14
934.33 3.6165e-14
945.15 6.3137e-14
956.1 8.1524e-14
964.94 8.6354e-14
976.12 1.3252e-14
985.15 6.0853e-14
994.26 6.8752e-14
1005.78 1.043e-13
1015.08 1.0698e-13
1024.48 5.988e-14
1033.96 8.2089e-14
1045.93 1.4167e-13
1055.61 1.3406e-13
1065.37 1.0478e-13
1075.23 1.2482e-13
1085.18 1.0263e-13
1095.22 1.3498e-13
1105.36 1.2482e-13
1115.58 1.2031e-13
1125.91 1.003e-13
1133.71 1.3467e-13
1144.2 1.2425e-13
1154.79 1.298e-13
1165.47 1.298e-13
1176.26 7.5733e-14
1184.41 1.2832e-13
1195.37 1.0772e-13
1203.65 7.5039e-14
1214.79 6.5507e-14
1226.03 1.0947e-13
1234.53 1.3909e-13
1245.95 1.4298e-13
1254.59 1.3718e-13
1266.2 1.3313e-13
1274.98 1.5076e-13
1283.81 1.5356e-13
1295.69 1.1975e-13
1304.67 1.2685e-13
1313.72 1.5392e-13
1325.87 1.4431e-13
1335.06 1.3406e-13
1344.32 1.4938e-13
1353.64 1.4631e-13
1366.16 1.3252e-13
1375.63 1.3313e-13
1385.17 1.3222e-13
1394.77 9.7788e-14
1404.44 1.0527e-13
1414.17 1.2198e-13
1423.97 1.2254e-13
1433.84 1.2714e-13
1440.46 1.3191e-13
1447.11 1.31e-13
1453.79 1.2743e-13
1463.87 1.1676e-13
1474.02 1.2058e-13
1484.23 1.2114e-13
1494.52 1.2114e-13
1504.88 1.1099e-13
1511.83 9.7563e-14
1515.31 1.0311e-13
1525.82 1.0575e-13
1536.39 8.8774e-14
1543.48 8.8978e-14
1554.18 8.7556e-14
1564.95 9.5123e-14
1575.8 1.0311e-13
1586.73 1.0673e-13
1594.05 1.0698e-13
1605.1 1.0896e-13
1616.23 1.0871e-13
1623.69 1.0527e-13
1634.94 1.141e-13
1646.27 1.1542e-13
1653.87 1.115e-13
1665.34 1.1811e-13
1673.02 1.1023e-13
1676.88 1.2254e-13
1684.62 1.2282e-13
1696.3 1.1569e-13
1704.13 1.1305e-13
1715.94 1.0648e-13
1723.86 1.0599e-13
1735.81 1.1305e-13
1743.82 1.1023e-13
1755.91 1.1489e-13
1764.01 1.1048e-13
1776.24 1.0673e-13
1784.44 1.1048e-13
1796.81 1.1622e-13
1805.1 1.1757e-13
1813.43 1.0454e-13
1826.0 1.0997e-13
1834.43 1.0624e-13
1842.9 9.6668e-14
1855.68 9.7563e-14
1864.24 1.003e-13
1872.85 1.0846e-13
1885.83 9.6891e-14
1894.53 9.0633e-14
1903.28 1.003e-13
1916.47 9.3602e-14
1925.32 9.0424e-14
1934.2 9.6668e-14
1943.13 1.003e-13
1956.6 9.0842e-14
1965.63 1.0122e-13
1974.7 1.0551e-13
1983.82 9.8466e-14
1992.97 9.6668e-14
2006.79 1.0146e-13
2016.05 9.9377e-14
2025.36 1.0406e-13
2034.71 9.5342e-14
2044.1 9.9148e-14
2053.53 9.4904e-14
2063.01 9.6003e-14
2072.54 1.0382e-13
2077.31 9.3602e-14
2086.9 9.9606e-14
2096.53 9.3818e-14
2106.21 9.7115e-14
2115.93 9.8239e-14
2125.7 9.9606e-14
2135.51 9.6224e-14
2145.37 9.3818e-14
2155.27 9.8466e-14
2165.22 9.7788e-14
2175.21 9.7115e-14
2185.25 9.4251e-14
2195.34 9.7563e-14
2205.47 9.6668e-14
2215.65 9.4034e-14
2225.88 9.1471e-14
2236.16 9.3387e-14
2246.48 9.2958e-14
2256.85 8.9802e-14
2267.26 9.1893e-14
2272.49 9.2318e-14
2282.98 9.3402e-14
2293.52 8.7192e-14
2304.1 9.028e-14
2314.74 8.6838e-14
2325.42 7.2082e-14
2336.16 8.2403e-14
2346.94 8.2616e-14
2352.35 8.4942e-14
2363.21 8.227e-14
2374.12 8.2293e-14
2385.07 8.0072e-14
2396.08 8.196e-14
2407.14 7.9749e-14
2412.69 8.0498e-14
2423.83 8.2397e-14
2435.02 7.9622e-14
2446.26 8.2065e-14
2457.55 8.1899e-14
2463.21 8.0787e-14
2474.58 7.9153e-14
2486.01 7.9176e-14
2497.48 7.01e-14
2503.24 7.921e-14
2514.79 7.4286e-14
2520.59 7.7441e-14
2526.4 7.5515e-14
2532.22 7.5526e-14
2543.91 7.3829e-14
2555.65 7.6622e-14
2567.45 7.5594e-14
2573.37 7.7544e-14
2585.25 7.6856e-14
2597.18 7.6175e-14
2603.17 7.4796e-14
2615.18 7.3962e-14
2627.25 7.5014e-14
2633.31 7.5719e-14
2645.46 7.8044e-14
2657.67 7.879e-14
2663.8 7.4052e-14
2676.1 7.5975e-14
2682.27 7.5987e-14
2694.65 7.3093e-14
2707.09 7.3116e-14
2713.33 7.1958e-14
2725.85 7.2147e-14
2732.13 7.3331e-14
2744.75 6.8615e-14
2757.41 6.9113e-14
2763.77 7.0086e-14
2776.53 7.1741e-14
2782.93 6.9797e-14
2795.77 6.3384e-14
2802.22 6.5622e-14
2815.15 7.05e-14
2828.15 7.1504e-14
2834.67 6.8612e-14
2847.75 6.8635e-14
2854.32 6.7238e-14
2867.49 7.0107e-14
2874.1 6.9796e-14
2887.37 6.9339e-14
2894.02 6.8873e-14
2907.38 7.0663e-14
2927.53 6.9249e-14
2947.83 6.7863e-14
2968.26 6.8211e-14
2988.84 6.7776e-14
3009.55 6.7035e-14
3030.41 6.7224e-14
3051.42 6.695e-14
3072.57 6.6678e-14
3086.75 6.5786e-14
3108.15 6.5821e-14
3129.69 6.4804e-14
3151.39 6.4689e-14
3173.23 6.3984e-14
3187.88 6.2119e-14
3209.98 6.3018e-14
3232.23 6.1193e-14
3247.15 6.2642e-14
3269.66 6.2966e-14
3292.32 6.2424e-14
3307.52 6.2018e-14
3322.78 6.4369e-14
3330.44 6.453e-14
3338.12 6.2065e-14
3345.82 6.2076e-14
3353.53 6.1236e-14
3361.26 6.1957e-14
3369.01 6.0698e-14
3376.77 5.9465e-14
3384.56 6.1142e-14
3392.36 6.2723e-14
3400.18 6.4049e-14
3408.02 6.0617e-14
3415.88 6.1331e-14
3423.75 6.4234e-14
3431.64 6.3951e-14
3439.55 6.3816e-14
3447.48 6.0676e-14
3455.43 6.027e-14
3463.39 5.891e-14
3471.38 6.0992e-14
3479.38 5.9478e-14
3487.4 5.8809e-14
3495.44 6.1169e-14
3503.5 6.0203e-14
3511.57 5.9938e-14
3519.67 6.0644e-14
3527.78 5.9276e-14
3535.92 6.1654e-14
3544.07 6.2237e-14
3552.24 6.2826e-14
3560.43 6.2262e-14
3568.63 5.9884e-14
3576.86 5.7333e-14
3585.11 5.6688e-14
3593.37 5.7753e-14
3601.65 6.0767e-14
3609.96 5.9259e-14
3618.28 6.0096e-14
3626.62 6.2652e-14
3634.98 6.0537e-14
3643.36 6.3112e-14
3649.61 5.9691e-14
3652.34 5.1322e-14
3655.06 6.0549e-14
3657.78 6.0362e-14
3660.5 6.1184e-14
3663.22 5.9385e-14
3665.94 5.6032e-14
3668.67 5.5576e-14
3671.39 5.852e-14
3674.11 6.2524e-14
3676.83 6.2668e-14
3679.55 5.7039e-14
3682.27 5.7538e-14
3685.0 6.0636e-14
3687.72 5.7962e-14
3690.44 5.9312e-14
3693.16 5.9926e-14
3695.88 5.9715e-14
3698.6 5.8287e-14
3701.33 6.0196e-14
3704.05 5.73e-14
3706.77 5.7964e-14
3709.49 6.8112e-14
3712.21 7.4999e-14
3714.93 9.6106e-14
3717.66 1.5185e-13
3720.38 2.4368e-13
3723.1 3.3289e-13
3725.82 3.3718e-13
3728.54 2.569e-13
3731.26 1.5114e-13
3733.99 9.5286e-14
3736.71 7.4866e-14
3739.43 6.3015e-14
3742.15 6.245e-14
3744.87 6.2018e-14
3747.59 5.8016e-14
3750.32 6.2454e-14
3753.04 6.5268e-14
3755.76 6.7545e-14
3758.48 6.3571e-14
3761.2 6.5944e-14
3763.92 6.6814e-14
3766.65 6.3805e-14
3769.37 6.2886e-14
3772.09 6.6426e-14
3774.81 7.3965e-14
3777.53 7.1856e-14
3780.25 7.0452e-14
3782.98 7.1979e-14
3785.7 6.8431e-14
3788.42 6.8206e-14
3791.14 6.4532e-14
3793.86 6.2029e-14
3796.58 6.3708e-14
3799.31 6.6333e-14
3802.03 7.0014e-14
3804.75 7.1813e-14
3807.47 7.3245e-14
3810.19 7.0552e-14
3812.91 7.2e-14
3815.64 7.079e-14
3818.36 6.8627e-14
3821.08 6.7829e-14
3823.8 6.9531e-14
3826.52 6.2321e-14
3829.24 5.8568e-14
3831.97 6.152e-14
3834.69 6.687e-14
3837.41 6.4446e-14
3840.13 6.7464e-14
3842.85 6.9015e-14
3845.57 7.4449e-14
3848.3 7.4456e-14
3851.02 7.3954e-14
3853.74 7.7496e-14
3856.46 7.8243e-14
3859.18 8.0999e-14
3861.9 8.2384e-14
3864.63 8.7944e-14
3867.35 8.3325e-14
3870.07 7.8501e-14
3872.79 7.5368e-14
3875.51 7.1764e-14
3878.23 7.0907e-14
3880.96 7.465e-14
3883.68 7.633e-14
3886.4 7.651e-14
3889.12 7.2614e-14
3891.84 6.9303e-14
3894.56 6.9974e-14
3897.29 6.8382e-14
3900.01 7.1476e-14
3902.73 7.6406e-14
3905.45 7.7219e-14
3908.17 7.5667e-14
3910.89 7.4243e-14
3913.62 7.4318e-14
3916.34 7.3873e-14
3919.06 7.2362e-14
3921.78 6.7882e-14
3924.5 6.4929e-14
3927.22 6.4859e-14
3929.95 6.2845e-14
3932.67 6.1526e-14
3935.39 6.6274e-14
3938.11 7.0851e-14
3940.83 7.0053e-14
3943.55 7.2183e-14
3946.28 7.4225e-14
3949.0 7.3739e-14
3951.72 6.9432e-14
3954.44 6.9569e-14
3957.16 6.589e-14
3959.88 6.4954e-14
3962.61 6.7488e-14
3965.33 6.8286e-14
3968.05 6.784e-14
3970.77 6.5894e-14
3973.49 6.6169e-14
3976.21 7.0806e-14
3978.94 7.1312e-14
3981.66 7.2506e-14
3984.38 7.3472e-14
3987.1 7.5165e-14
3989.82 7.5643e-14
3992.54 7.4564e-14
3995.27 7.6698e-14
3997.99 7.8071e-14
4000.71 7.7249e-14
4003.43 7.9055e-14
4006.15 7.8658e-14
4008.87 7.8375e-14
4011.6 8.1834e-14
4014.32 8.1022e-14
4017.04 7.9585e-14
4019.76 8.2033e-14
4022.48 8.0203e-14
4025.2 7.5649e-14
4027.93 7.9141e-14
4030.65 7.8894e-14
4033.37 7.6931e-14
4036.09 7.8344e-14
4038.81 8.1024e-14
4041.53 7.9599e-14
4044.26 7.7364e-14
4046.98 7.7052e-14
4049.7 7.7836e-14
4052.42 7.9749e-14
4055.14 7.728e-14
4057.86 8.0284e-14
4060.59 7.9151e-14
4063.31 8.2547e-14
4066.03 7.8429e-14
4068.75 7.9501e-14
4071.47 7.8285e-14
4074.19 7.7011e-14
4076.92 7.7104e-14
4079.64 7.7801e-14
4082.36 7.7453e-14
4085.08 7.4769e-14
4087.8 7.4912e-14
4090.52 7.6162e-14
4093.25 7.9009e-14
4095.97 8.403e-14
4098.69 9.0767e-14
4101.41 8.725e-14
4104.13 7.725e-14
4106.85 7.2921e-14
4109.58 7.3963e-14
4112.3 7.1052e-14
4115.02 7.2365e-14
4117.74 7.5368e-14
4120.46 7.371e-14
4123.18 7.4466e-14
4125.91 7.4258e-14
4128.63 7.3142e-14
4131.35 7.533e-14
4134.07 7.73e-14
4136.79 7.5181e-14
4139.51 7.3394e-14
4142.24 7.4779e-14
4144.96 7.3415e-14
4147.68 7.502e-14
4150.4 7.5753e-14
4153.12 7.6204e-14
4155.84 8.0348e-14
4158.57 7.6853e-14
4161.29 7.8761e-14
4164.01 7.3994e-14
4166.73 7.4546e-14
4169.45 7.7458e-14
4172.17 7.3198e-14
4174.9 7.4726e-14
4177.62 7.3766e-14
4180.34 7.4506e-14
4183.06 7.6588e-14
4185.78 7.6489e-14
4188.5 7.4307e-14
4191.23 7.4857e-14
4193.95 7.2471e-14
4196.67 7.4468e-14
4199.39 7.3276e-14
4202.11 7.4423e-14
4204.83 7.3456e-14
4207.56 7.469e-14
4210.28 7.6339e-14
4213.0 7.6624e-14
4215.72 7.392e-14
4218.44 7.2889e-14
4221.16 7.4068e-14
4223.88 7.3734e-14
4226.61 7.2682e-14
4229.33 7.2185e-14
4232.05 7.2852e-14
4234.77 7.2876e-14
4237.49 7.4427e-14
4240.21 7.4999e-14
4242.94 7.4398e-14
4245.66 7.3007e-14
4248.38 7.3033e-14
4251.1 7.5361e-14
4253.82 7.5728e-14
4256.54 7.3982e-14
4259.27 7.3895e-14
4261.99 7.4674e-14
4264.71 7.2925e-14
4267.43 7.0833e-14
4270.15 7.3701e-14
4272.87 7.4426e-14
4275.6 7.1761e-14
4278.32 7.3502e-14
4281.04 7.3115e-14
4283.76 7.3639e-14
4286.48 7.3712e-14
4289.2 7.225e-14
4291.93 6.8493e-14
4294.65 6.919e-14
4297.37 6.845e-14
4300.09 6.6629e-14
4302.81 6.6351e-14
4305.53 6.5817e-14
4308.26 6.967e-14
4310.98 7.1158e-14
4313.7 7.3018e-14
4316.42 7.2869e-14
4319.14 7.2097e-14
4321.86 7.0422e-14
4324.59 7.0885e-14
4327.31 7.352e-14
4330.03 8.0034e-14
4332.75 9.4982e-14
4335.47 1.1213e-13
4338.19 1.1753e-13
4340.92 1.0519e-13
4343.64 8.7368e-14
4346.36 7.5337e-14
4349.08 7.2637e-14
4351.8 7.3636e-14
4354.52 7.5828e-14
4357.25 7.6384e-14
4359.97 7.4827e-14
4362.69 7.6009e-14
4365.41 7.4986e-14
4368.13 7.4057e-14
4370.85 7.4266e-14
4373.58 7.2912e-14
4376.3 7.2586e-14
4379.02 7.0227e-14
4381.74 6.9164e-14
4384.46 6.9305e-14
4387.18 6.9604e-14
4389.91 7.0797e-14
4392.63 7.2245e-14
4395.35 7.2534e-14
4398.07 7.2474e-14
4400.79 7.2215e-14
4403.51 7.1498e-14
4406.24 7.2524e-14
4408.96 7.3575e-14
4411.68 7.3604e-14
4414.4 7.4007e-14
4417.12 7.2986e-14
4419.84 7.4255e-14
4422.57 7.4434e-14
4425.29 7.3265e-14
4428.01 7.3036e-14
4430.73 7.3099e-14
4433.45 7.5507e-14
4436.17 7.4722e-14
4438.9 7.4636e-14
4441.62 7.4749e-14
4444.34 7.4549e-14
4447.06 7.5024e-14
4449.78 7.4618e-14
4452.5 7.4109e-14
4455.23 7.4488e-14
4457.95 7.2517e-14
4460.67 7.1477e-14
4463.39 7.3476e-14
4466.11 7.646e-14
4468.83 7.7122e-14
4471.56 7.5833e-14
4474.28 7.5285e-14
4477.0 7.6041e-14
4479.72 7.6135e-14
4482.44 7.5253e-14
4485.16 7.3182e-14
4487.89 7.4544e-14
4490.61 7.5447e-14
4493.33 7.4872e-14
4496.05 7.529e-14
4498.77 7.6189e-14
4501.49 7.5932e-14
4504.22 7.8064e-14
4506.94 7.8081e-14
4509.66 7.6438e-14
4512.38 7.6355e-14
4515.1 7.4764e-14
4517.82 7.539e-14
4520.55 7.5387e-14
4523.27 7.5401e-14
4525.99 7.4834e-14
4528.71 7.3126e-14
4531.43 7.3345e-14
4534.15 7.4517e-14
4536.88 7.445e-14
4539.6 7.5606e-14
4542.32 7.3577e-14
4545.04 7.2585e-14
4547.76 7.2363e-14
4550.48 7.5052e-14
4553.21 7.4591e-14
4555.93 7.4537e-14
4558.65 7.7115e-14
4561.37 7.7835e-14
4564.09 7.5003e-14
4566.81 7.4989e-14
4569.54 7.6446e-14
4572.26 7.6766e-14
4574.98 7.5191e-14
4577.7 7.4584e-14
4580.42 7.3251e-14
4583.14 7.4761e-14
4585.87 7.5486e-14
4588.59 7.454e-14
4591.31 7.4675e-14
4594.03 7.4545e-14
4596.75 7.4104e-14
4599.47 7.4211e-14
4602.2 7.4111e-14
4604.92 7.5916e-14
4607.64 7.6106e-14
4610.36 7.7213e-14
4613.08 7.5267e-14
4615.8 7.3934e-14
4618.53 7.5952e-14
4621.25 7.6636e-14
4623.97 7.6866e-14
4626.69 7.7154e-14
4629.41 7.672e-14
4632.13 7.5324e-14
4634.86 7.5262e-14
4637.58 7.4534e-14
4640.3 7.3588e-14
4643.02 7.2987e-14
4645.74 7.2429e-14
4648.46 7.4333e-14
4651.19 7.476e-14
4653.91 7.5669e-14
4656.63 7.7123e-14
4659.35 7.5037e-14
4662.07 7.2846e-14
4664.79 7.2413e-14
4667.52 7.3338e-14
4670.24 7.3368e-14
4672.96 7.2242e-14
4675.68 7.2908e-14
4678.4 7.4935e-14
4681.12 7.5022e-14
4683.85 7.6025e-14
4686.57 7.5113e-14
4689.29 7.4769e-14
4692.01 7.3131e-14
4694.73 7.3544e-14
4697.45 7.2708e-14
4700.18 7.2789e-14
4702.9 7.2591e-14
4705.62 7.2737e-14
4708.34 7.3119e-14
4711.06 7.3398e-14
4713.78 7.3705e-14
4716.51 7.4655e-14
4719.23 7.536e-14
4721.95 7.51e-14
4724.67 7.4846e-14
4727.39 7.4679e-14
4730.11 7.4272e-14
4732.84 7.4053e-14
4735.56 7.3843e-14
4738.28 7.4391e-14
4741.0 7.4914e-14
4743.72 7.5646e-14
4746.44 7.4226e-14
4749.17 7.5207e-14
4751.89 7.4358e-14
4754.61 7.309e-14
4757.33 7.2955e-14
4760.05 7.2637e-14
4762.77 7.1126e-14
4765.5 7.4225e-14
4768.22 7.2449e-14
4770.94 7.4267e-14
4773.66 7.4599e-14
4776.38 7.5806e-14
4779.1 7.3439e-14
4781.83 7.3488e-14
4784.55 7.3936e-14
4787.27 7.3102e-14
4789.99 7.3797e-14
4792.71 7.4832e-14
4795.43 7.5866e-14
4798.16 7.4123e-14
4800.88 7.5332e-14
4803.6 7.3119e-14
4806.32 7.288e-14
4809.04 7.4148e-14
4811.76 7.458e-14
4814.49 7.4861e-14
4817.21 7.4287e-14
4819.93 7.3807e-14
4822.65 7.2296e-14
4825.37 7.4453e-14
4828.09 7.3125e-14
4830.82 7.4047e-14
4833.54 7.3298e-14
4836.26 7.3685e-14
4838.98 7.4333e-14
4841.7 7.0272e-14
4844.42 7.2884e-14
4847.15 7.344e-14
4849.87 8.5101e-14
4852.59 1.1671e-13
4855.31 1.7063e-13
4858.03 2.0742e-13
4860.75 1.8852e-13
4863.48 1.3959e-13
4866.2 9.5737e-14
4868.92 7.5101e-14
4871.64 6.9693e-14
4874.36 6.7733e-14
4877.08 7.0024e-14
4879.81 6.9588e-14
4882.53 7.1224e-14
4885.25 6.7835e-14
4887.97 7.1297e-14
4890.69 7.1126e-14
4893.41 7.1982e-14
4896.14 7.1536e-14
4898.86 7.0746e-14
4901.58 7.0954e-14
4904.3 7.244e-14
4907.02 6.9062e-14
4909.74 7.0184e-14
4912.47 7.0912e-14
4915.19 7.0496e-14
4917.91 6.8236e-14
4920.63 7.0748e-14
4923.35 7.1768e-14
4926.07 7.1884e-14
4928.8 7.2034e-14
4931.52 6.8243e-14
4934.24 6.9638e-14
4936.96 6.9106e-14
4939.68 6.9006e-14
4942.4 7.2154e-14
4945.13 7.6442e-14
4947.85 8.0761e-14
4950.57 9.2897e-14
4953.29 1.1122e-13
4956.01 1.2309e-13
4958.73 1.1449e-13
4961.46 9.7332e-14
4964.18 8.0177e-14
4966.9 7.2742e-14
4969.62 7.1806e-14
4972.34 7.2397e-14
4975.06 7.1421e-14
4977.79 7.0658e-14
4980.51 6.9103e-14
4983.23 7.1153e-14
4985.95 7.2172e-14
4988.67 7.2652e-14
4991.39 7.716e-14
4994.12 8.4416e-14
4996.84 1.0637e-13
4999.56 1.5733e-13
5002.28 2.1035e-13
5005.0 2.24e-13
5007.72 1.8312e-13
5010.45 1.2313e-13
5013.17 8.7282e-14
5015.89 7.5102e-14
5018.61 6.9306e-14
5021.33 6.8744e-14
5024.05 6.9008e-14
5026.78 6.9235e-14
5029.5 7.0241e-14
5032.22 6.9352e-14
5034.94 6.9904e-14
5037.66 6.8548e-14
5040.38 6.8344e-14
5043.11 6.7501e-14
5045.83 6.8885e-14
5048.55 6.9063e-14
5051.27 6.9249e-14
5053.99 7.0223e-14
5056.71 7.0355e-14
5059.44 6.9748e-14
5062.16 7.001e-14
5064.88 6.9929e-14
5067.6 7.0342e-14
5070.32 6.8034e-14
5073.04 6.6878e-14
5075.77 6.6703e-14
5078.49 6.8124e-14
5081.21 6.7469e-14
5083.93 6.745e-14
5086.65 6.7685e-14
5089.37 6.8935e-14
5092.1 6.9209e-14
5094.82 6.943e-14
5097.54 6.8311e-14
5100.26 6.6857e-14
5102.98 6.8648e-14
5105.7 6.833e-14
5108.43 6.8395e-14
5111.15 6.9862e-14
5113.87 6.9831e-14
5116.59 6.8251e-14
5119.31 6.7644e-14
5122.03 6.9057e-14
5124.76 6.6291e-14
5127.48 6.4725e-14
5130.2 6.8288e-14
5132.92 6.703e-14
5135.64 6.6895e-14
5138.36 6.6764e-14
5141.09 6.5472e-14
5143.81 6.7603e-14
5146.53 6.6106e-14
5149.25 6.5502e-14
5151.97 6.5958e-14
5154.69 6.8187e-14
5157.42 6.6979e-14
5160.14 6.6748e-14
5162.86 6.4803e-14
5165.58 6.1556e-14
5168.3 6.1691e-14
5171.02 6.1061e-14
5173.75 6.3754e-14
5176.47 6.3446e-14
5179.19 6.3099e-14
5181.91 6.2849e-14
5184.63 6.3442e-14
5187.35 6.5184e-14
5190.08 6.7862e-14
5192.8 7.1936e-14
5195.52 7.5827e-14
5198.24 7.6222e-14
5200.96 7.2297e-14
5203.68 6.8915e-14
5206.41 6.5628e-14
5209.13 6.5049e-14
5211.85 6.6973e-14
5214.57 6.6538e-14
5217.29 6.5804e-14
5220.01 6.4574e-14
5222.74 6.4293e-14
5225.46 6.4022e-14
5228.18 6.567e-14
5230.9 6.6849e-14
5233.62 6.5534e-14
5236.34 6.8202e-14
5239.07 6.9017e-14
5241.79 6.7108e-14
5244.51 6.7301e-14
5247.23 6.734e-14
5249.95 6.7005e-14
5252.67 6.7034e-14
5255.4 6.8282e-14
5258.12 6.603e-14
5260.84 6.5434e-14
5263.56 6.615e-14
5266.28 6.6309e-14
5269.0 6.6534e-14
5271.73 6.9096e-14
5274.45 6.9727e-14
5277.17 6.9621e-14
5279.89 6.8684e-14
5282.61 6.9334e-14
5285.33 7.0501e-14
5288.06 7.1518e-14
5290.78 7.0774e-14
5293.5 7.0067e-14
5296.22 6.9123e-14
5298.94 6.8278e-14
5301.66 7.056e-14
5304.39 7.0831e-14
5307.11 6.9358e-14
5309.83 7.1168e-14
5312.55 7.0456e-14
5315.27 6.9183e-14
5317.99 6.8523e-14
5320.72 6.8773e-14
5323.44 6.8502e-14
5326.16 6.6933e-14
5328.88 6.7565e-14
5331.6 6.85e-14
5334.32 6.8988e-14
5337.05 6.9117e-14
5339.77 6.6951e-14
5342.49 6.8292e-14
5345.21 6.909e-14
5347.93 6.7985e-14
5350.65 6.9654e-14
5353.38 7.1028e-14
5356.1 7.2581e-14
5358.82 6.9985e-14
5361.54 6.6626e-14
5364.26 6.8639e-14
5366.98 6.8453e-14
5369.71 6.8742e-14
5372.43 6.75e-14
5375.15 6.9777e-14
5377.87 6.8401e-14
5380.59 7.0031e-14
5383.31 6.9021e-14
5386.04 6.8285e-14
5388.76 6.7696e-14
5391.48 6.61e-14
5394.2 6.5578e-14
5396.92 6.5638e-14
5399.64 6.5591e-14
5402.37 6.6137e-14
5405.09 6.5163e-14
5407.81 6.6137e-14
5410.53 6.8076e-14
5413.25 6.8816e-14
5415.97 6.7792e-14
5418.7 6.8634e-14
5421.42 6.7559e-14
5424.14 6.7805e-14
5426.86 6.8242e-14
5429.58 6.8332e-14
5432.3 6.7001e-14
5435.03 7.1019e-14
5437.75 6.9687e-14
5440.47 6.9129e-14
5443.19 6.6641e-14
5445.91 6.8708e-14
5448.63 6.8568e-14
5451.36 6.623e-14
5454.08 6.8269e-14
5456.8 6.6939e-14
