# col1 col2
# An Atlas of Galaxy Spectral Energy Distributions from the Ultraviolet to the Mid-Infrared
# Brown et al. (2014)
# http://dx.doi.org/10.5072/03/529D3551F0117
# 
# Column 1 : Restframe Wavelength (Angstrom)
# Column 2 : Flux per unit wavelength (ergs/s/cm^2/Angstrom)
# Column 3 : Observed wavelength (Angstrom)
# Column 4 : Source (0 = model, 1 = Optical Spectrum, 2 = Akari, 3 = Spitzer IRS)
# 
102.06 9.8238e-24
103.96 1.3876e-23
105.89 1.9828e-23
108.11 2.8792e-23
110.12 4.6589e-23
113.98 8.5365e-23
117.99 1.4564e-22
121.02 6.3282e-22
124.98 9.7786e-22
127.01 1.1729e-21
127.89 1.307e-21
130.87 1.6799e-21
132.08 2.0858e-21
133.92 2.4338e-21
137.04 3.5341e-21
139.91 4.3982e-21
142.84 1.4232e-20
146.84 4.378e-20
150.96 5.4485e-20
154.83 6.8278e-20
159.17 8.5168e-20
162.12 9.9604e-20
165.9 1.2367e-19
170.16 1.4938e-19
172.92 1.723e-19
176.95 2.0525e-19
179.82 2.3296e-19
181.91 2.5426e-19
186.14 2.9873e-19
190.92 3.6248e-19
194.02 4.0952e-19
198.08 4.7128e-19
202.23 5.4485e-19
205.04 6.0434e-19
209.82 6.7964e-19
216.2 8.5759e-19
220.22 9.7337e-19
222.77 1.0502e-18
226.91 1.1893e-18
230.06 1.9288e-18
233.8 3.4856e-18
239.8 4.7237e-18
245.95 4.9236e-18
252.26 5.7185e-18
256.95 5.2153e-18
259.92 6.227e-18
264.15 6.8909e-18
269.06 7.3499e-18
274.06 7.8033e-18
279.16 8.2847e-18
283.69 8.7756e-18
290.3 8.9594e-18
295.7 9.7113e-18
301.19 1.0146e-17
308.21 1.0972e-17
318.31 1.2254e-17
327.98 1.3313e-17
337.95 1.4298e-17
348.22 1.525e-17
357.15 1.6154e-17
366.31 1.7151e-17
374.84 1.7959e-17
385.34 1.8293e-17
395.23 1.9782e-17
405.37 2.081e-17
413.85 2.1492e-17
421.55 2.1942e-17
430.38 2.2505e-17
441.42 2.3457e-17
450.66 2.4004e-17
460.1 2.445e-17
469.73 2.502e-17
479.57 2.578e-17
489.61 2.5958e-17
499.86 2.6809e-17
505.65 2.6809e-17
511.5 2.8332e-17
519.81 2.8792e-17
529.48 2.8992e-17
540.56 2.8792e-17
550.61 2.9463e-17
559.56 3.071e-17
569.96 3.1789e-17
580.56 3.1716e-17
589.99 3.2906e-17
599.58 3.268e-17
609.32 3.0639e-17
620.65 3.5179e-17
629.29 3.5586e-17
639.51 3.6331e-17
649.9 3.7349e-17
657.43 3.7695e-17
665.04 3.8929e-17
674.29 3.9471e-17
685.25 3.884e-17
694.78 4.2882e-17
704.45 4.1522e-17
715.89 4.5633e-17
725.85 4.6804e-17
734.26 4.8004e-17
744.47 5.0615e-17
754.83 5.2514e-17
765.33 5.1794e-17
774.19 5.7449e-17
784.96 5.9194e-17
795.88 6.2127e-17
805.1 6.4756e-17
814.42 6.7031e-17
825.75 7.1826e-17
835.31 6.2414e-17
844.98 7.5907e-17
854.77 7.8213e-17
864.66 8.3614e-17
874.68 8.9182e-17
884.81 9.5781e-17
895.05 1.0122e-16
905.42 1.0192e-16
915.9 1.4598e-16
924.37 8.4777e-16
935.08 1.8462e-15
945.91 3.5586e-15
954.66 5.2153e-15
965.71 5.627e-15
974.65 8.8161e-16
985.93 4.3479e-15
995.06 5.0036e-15
1004.26 8.0035e-15
1015.89 8.0035e-15
1025.29 3.5915e-15
1034.78 5.3614e-15
1044.35 1.1176e-14
1054.02 1.1073e-14
1066.22 8.3614e-15
1076.09 1.0382e-14
1086.04 7.8574e-15
1096.09 1.1253e-14
1106.24 1.0896e-14
1113.9 1.0382e-14
1124.21 9.2529e-15
1134.61 1.2539e-14
1145.11 1.1331e-14
1155.71 1.2396e-14
1163.72 1.2832e-14
1174.49 8.4582e-15
1185.35 1.2626e-14
1196.32 8.1335e-15
1204.61 5.6012e-15
1215.76 4.318e-15
1224.19 8.8568e-15
1235.51 1.4102e-14
1244.08 1.5678e-14
1255.59 1.4835e-14
1264.29 1.2568e-14
1275.99 1.7111e-14
1284.84 1.8209e-14
1293.74 1.3686e-14
1305.71 1.3561e-14
1314.76 1.7959e-14
1323.88 1.719e-14
1336.13 1.4835e-14
1345.39 1.8633e-14
1354.71 1.8083e-14
1364.1 1.5896e-14
1373.56 1.6993e-14
1386.27 1.7269e-14
1395.88 1.4869e-14
1405.55 1.5498e-14
1415.3 1.6043e-14
1425.11 1.676e-14
1434.99 1.6722e-14
1441.61 1.7876e-14
1448.26 1.8293e-14
1454.95 1.7712e-14
1465.03 1.6229e-14
1475.19 1.6341e-14
1485.41 1.6876e-14
1495.71 1.7349e-14
1506.08 1.6341e-14
1513.03 1.4331e-14
1516.52 1.5606e-14
1523.52 1.5041e-14
1534.08 1.2832e-14
1544.71 1.4397e-14
1555.42 1.3655e-14
1566.2 1.4037e-14
1573.43 1.5111e-14
1584.34 1.6154e-14
1595.32 1.653e-14
1606.38 1.6341e-14
1613.79 1.6492e-14
1624.98 1.557e-14
1636.24 1.6799e-14
1643.79 1.719e-14
1655.19 1.5823e-14
1666.66 1.751e-14
1670.51 1.5285e-14
1678.22 1.7753e-14
1685.96 1.8762e-14
1693.74 1.755e-14
1705.48 1.6876e-14
1713.36 1.5896e-14
1725.23 1.5896e-14
1733.2 1.719e-14
1745.21 1.6838e-14
1753.27 1.8209e-14
1765.42 1.6568e-14
1773.57 1.7033e-14
1785.86 1.751e-14
1794.1 1.8936e-14
1806.54 1.8849e-14
1814.88 1.7269e-14
1823.26 1.7794e-14
1835.89 1.7072e-14
1844.37 1.5642e-14
1852.88 1.575e-14
1865.73 1.6379e-14
1874.34 1.7959e-14
1882.99 1.6454e-14
1896.04 1.5896e-14
1904.79 1.6954e-14
1913.59 1.6303e-14
1926.85 1.6043e-14
1935.74 1.6568e-14
1944.68 1.7469e-14
1953.65 1.6341e-14
1967.2 1.8167e-14
1976.28 1.8719e-14
1985.4 1.7753e-14
1994.56 1.7269e-14
2003.77 1.7876e-14
2013.02 1.7269e-14
2026.97 1.8167e-14
2036.33 1.723e-14
2045.73 1.8083e-14
2055.17 1.7033e-14
2064.66 1.719e-14
2074.19 1.8762e-14
2078.97 1.8083e-14
2083.76 1.8979e-14
2093.38 1.7959e-14
2103.04 1.8042e-14
2112.75 1.8377e-14
2127.39 1.859e-14
2137.21 1.7269e-14
2147.08 1.7918e-14
2156.99 1.8676e-14
2166.94 1.8042e-14
2176.95 1.7959e-14
2186.99 1.7835e-14
2197.09 1.8719e-14
2207.23 1.8209e-14
2217.42 1.719e-14
2222.53 1.676e-14
2232.79 1.8167e-14
2243.1 1.7389e-14
2253.45 1.6454e-14
2263.85 1.6876e-14
2274.3 1.747e-14
2284.8 1.8169e-14
2295.34 1.6997e-14
2305.94 1.7275e-14
2316.58 1.6347e-14
2327.27 1.2779e-14
2332.64 1.498e-14
2343.41 1.4439e-14
2354.22 1.598e-14
2365.09 1.4408e-14
2376.01 1.4985e-14
2386.97 1.373e-14
2392.48 1.4781e-14
2403.52 1.4215e-14
2414.61 1.4716e-14
2425.76 1.5989e-14
2436.96 1.5447e-14
2442.57 1.6477e-14
2453.85 1.6403e-14
2465.17 1.6105e-14
2476.55 1.5488e-14
2482.26 1.5524e-14
2493.72 1.4456e-14
2505.23 1.6791e-14
2511.01 1.4392e-14
2516.79 1.4727e-14
2522.6 1.4228e-14
2534.24 1.4763e-14
2545.94 1.4562e-14
2557.69 1.6228e-14
2563.58 1.5463e-14
2575.42 1.657e-14
2587.3 1.6232e-14
2593.27 1.59e-14
2605.24 1.5291e-14
2617.27 1.4979e-14
2623.3 1.6014e-14
2635.41 1.7399e-14
2647.57 1.9434e-14
2653.68 2.0873e-14
2665.92 1.7727e-14
2672.07 1.8908e-14
2684.4 1.9262e-14
2696.79 1.7772e-14
2703.01 1.8826e-14
2715.49 1.7251e-14
2728.02 1.6898e-14
2734.31 1.8025e-14
2746.93 1.4925e-14
2753.26 1.5665e-14
2765.97 1.671e-14
2772.35 1.7579e-14
2785.14 1.585e-14
2798.0 1.2476e-14
2804.45 1.3431e-14
2817.4 1.7225e-14
2823.89 1.9106e-14
2836.92 1.8502e-14
2843.46 1.7548e-14
2856.59 1.6006e-14
2863.17 1.9378e-14
2876.39 2.0293e-14
2883.02 1.9741e-14
2896.33 2.025e-14
2909.7 2.3145e-14
2929.87 2.1804e-14
2950.17 2.1262e-14
2970.62 2.2063e-14
2991.22 2.2169e-14
3011.95 2.2637e-14
3032.83 2.2902e-14
3046.83 2.3117e-14
3067.95 2.3714e-14
3089.21 2.3937e-14
3110.63 2.4669e-14
3132.19 2.4056e-14
3146.64 2.4169e-14
3168.46 2.4794e-14
3190.42 2.2931e-14
3212.53 2.4406e-14
3227.36 2.2364e-14
3249.73 2.5622e-14
3272.26 2.7586e-14
3287.36 2.7211e-14
3310.15 2.6966e-14
3325.43 2.6969e-14
3333.1 2.8177e-14
3340.78 2.5818e-14
3348.48 2.9577e-14
3356.2 2.8247e-14
3363.94 2.3121e-14
3371.69 2.4212e-14
3379.46 2.8383e-14
3387.25 2.7995e-14
3395.06 2.6614e-14
3402.89 3.0488e-14
3410.73 2.6617e-14
3418.6 2.6375e-14
3426.48 2.7811e-14
3434.38 3.0008e-14
3442.29 2.6198e-14
3450.23 2.7434e-14
3458.18 2.7946e-14
3466.15 2.7124e-14
3474.14 2.8799e-14
3482.15 2.7568e-14
3490.18 2.8869e-14
3498.22 2.6029e-14
3506.29 2.9681e-14
3514.37 2.7134e-14
3522.47 2.9617e-14
3530.59 2.6765e-14
3538.73 2.9826e-14
3546.89 3.0593e-14
3555.07 3.0736e-14
3563.26 2.9626e-14
3571.48 2.6467e-14
3579.71 2.7085e-14
3587.96 2.3646e-14
3596.23 2.8105e-14
3604.52 3.0187e-14
3612.83 2.6112e-14
3617.78 2.8796e-14
3620.5 2.6376e-14
3623.21 2.5708e-14
3625.92 2.8249e-14
3628.63 2.914e-14
3631.34 2.9121e-14
3634.05 2.8937e-14
3636.76 3.1866e-14
3639.48 3.0294e-14
3642.19 2.8429e-14
3644.9 2.7937e-14
3647.61 3.1476e-14
3650.32 3.1588e-14
3653.03 2.9424e-14
3655.74 3.0087e-14
3658.45 3.1436e-14
3661.17 2.9958e-14
3663.88 3.2247e-14
3666.59 3.1957e-14
3669.3 3.2528e-14
3672.01 2.9459e-14
3674.72 2.6335e-14
3677.43 2.732e-14
3680.15 2.9093e-14
3682.86 2.9228e-14
3685.57 2.3844e-14
3688.28 2.4837e-14
3690.99 3.2574e-14
3693.7 3.1626e-14
3696.41 2.6381e-14
3699.12 2.9007e-14
3701.84 2.9319e-14
3704.55 3.0815e-14
3707.26 3.1585e-14
3709.97 3.234e-14
3712.68 3.2003e-14
3715.39 3.5847e-14
3718.1 3.1677e-14
3720.82 3.6422e-14
3723.53 4.0241e-14
3726.24 4.7936e-14
3728.95 5.5425e-14
3731.66 4.6611e-14
3734.37 4.177e-14
3737.08 3.5741e-14
3739.79 3.4832e-14
3742.51 2.8914e-14
3745.22 3.1481e-14
3747.93 2.6076e-14
3750.64 2.8043e-14
3753.35 2.7212e-14
3756.06 3.4134e-14
3758.77 3.2096e-14
3761.48 3.3687e-14
3764.2 3.1457e-14
3766.91 3.4503e-14
3769.62 3.3986e-14
3772.33 3.351e-14
3775.04 3.6114e-14
3777.75 3.912e-14
3780.46 3.7652e-14
3783.18 4.1873e-14
3785.89 3.8109e-14
3788.6 3.9299e-14
3791.31 3.5666e-14
3794.02 3.3493e-14
3796.73 3.1428e-14
3799.44 3.1076e-14
3802.15 3.5617e-14
3804.87 3.6704e-14
3807.58 3.8881e-14
3810.29 4.2897e-14
3813.0 4.0728e-14
3815.71 3.8585e-14
3818.42 3.9046e-14
3821.13 3.8853e-14
3823.85 3.3759e-14
3826.56 3.4111e-14
3829.27 3.1149e-14
3831.98 2.9805e-14
3834.69 2.7632e-14
3837.4 2.7784e-14
3840.11 2.9998e-14
3842.82 3.3695e-14
3845.54 3.708e-14
3848.25 4.0058e-14
3850.96 4.0562e-14
3853.67 4.0699e-14
3856.38 4.1179e-14
3859.09 4.1486e-14
3861.8 4.2071e-14
3864.51 4.3388e-14
3867.23 4.5244e-14
3869.94 4.205e-14
3872.65 4.1399e-14
3875.36 3.8434e-14
3878.07 3.6865e-14
3880.78 3.607e-14
3883.49 3.4222e-14
3886.21 3.5168e-14
3888.92 3.552e-14
3891.63 3.4309e-14
3894.34 3.7919e-14
3897.05 3.7357e-14
3899.76 3.7431e-14
3902.47 4.1726e-14
3905.18 4.069e-14
3907.9 4.3243e-14
3910.61 4.3453e-14
3913.32 4.5443e-14
3916.03 4.6351e-14
3918.74 4.7171e-14
3921.45 4.336e-14
3924.16 3.9455e-14
3926.88 3.6504e-14
3929.59 3.5534e-14
3932.3 3.1845e-14
3935.01 3.1049e-14
3937.72 3.3015e-14
3940.43 3.4766e-14
3943.14 3.8801e-14
3945.85 4.0908e-14
3948.57 4.1465e-14
3951.28 4.1774e-14
3953.99 4.2673e-14
3956.7 4.1909e-14
3959.41 4.1747e-14
3962.12 3.9234e-14
3964.83 3.3527e-14
3967.54 2.9605e-14
3970.26 2.8596e-14
3972.97 2.9999e-14
3975.68 3.296e-14
3978.39 4.0018e-14
3981.1 4.4894e-14
3983.81 4.6205e-14
3986.52 4.8573e-14
3989.24 4.9177e-14
3991.95 5.08e-14
3994.66 4.8936e-14
3997.37 5.0782e-14
4000.08 5.2342e-14
4002.79 5.0902e-14
4005.5 5.2178e-14
4008.21 5.2302e-14
4010.93 5.3875e-14
4013.64 5.3918e-14
4016.35 5.5919e-14
4019.06 5.5999e-14
4021.77 5.5927e-14
4024.48 5.4194e-14
4027.19 5.1709e-14
4029.91 5.3991e-14
4032.62 5.4324e-14
4035.33 5.6576e-14
4038.04 5.3793e-14
4040.75 5.3592e-14
4043.46 5.3909e-14
4046.17 5.1639e-14
4048.88 5.2719e-14
4051.6 5.3264e-14
4054.31 5.3787e-14
4057.02 5.3718e-14
4059.73 5.1912e-14
4062.44 5.1089e-14
4065.15 5.0944e-14
4067.86 5.2474e-14
4070.58 5.163e-14
4073.29 5.0288e-14
4076.0 4.9978e-14
4078.71 4.9421e-14
4081.42 5.1626e-14
4084.13 5.2979e-14
4086.84 5.3086e-14
4089.55 5.3028e-14
4092.27 5.0851e-14
4094.98 4.8143e-14
4097.69 4.4982e-14
4100.4 4.3613e-14
4103.11 4.4636e-14
4105.82 4.6595e-14
4108.53 4.6756e-14
4111.24 4.6971e-14
4113.96 4.8015e-14
4116.67 4.7961e-14
4119.38 4.8349e-14
4122.09 4.9163e-14
4124.8 5.0958e-14
4127.51 5.4172e-14
4130.22 5.2579e-14
4132.94 5.3858e-14
4135.65 5.3729e-14
4138.36 5.44e-14
4141.07 5.3025e-14
4143.78 5.2456e-14
4146.49 5.2112e-14
4149.2 5.2343e-14
4151.91 5.1882e-14
4154.63 5.3559e-14
4157.34 5.3159e-14
4160.05 5.4011e-14
4162.76 5.362e-14
4165.47 5.3544e-14
4168.18 5.3164e-14
4170.89 5.4031e-14
4173.61 5.2403e-14
4176.32 5.1447e-14
4179.03 5.2184e-14
4181.74 5.1852e-14
4184.45 5.2627e-14
4187.16 5.2893e-14
4189.87 5.2063e-14
4192.58 5.1613e-14
4195.3 5.1881e-14
4198.01 5.2066e-14
4200.72 5.05e-14
4203.43 5.1682e-14
4206.14 5.3341e-14
4208.85 5.3043e-14
4211.56 5.4473e-14
4214.27 5.4637e-14
4216.99 5.3968e-14
4219.7 5.2474e-14
4222.41 5.0769e-14
4225.12 5.2095e-14
4227.83 5.1938e-14
4230.54 5.043e-14
4233.25 5.1176e-14
4235.97 5.3688e-14
4238.68 5.4219e-14
4241.39 5.5946e-14
4244.1 5.5162e-14
4246.81 5.5171e-14
4249.52 5.4324e-14
4252.23 5.5081e-14
4254.94 5.4044e-14
4257.66 5.2748e-14
4260.37 5.3227e-14
4263.08 5.6359e-14
4265.79 5.6992e-14
4268.5 5.5939e-14
4271.21 5.3633e-14
4273.92 5.3539e-14
4276.64 5.3525e-14
4279.35 5.6027e-14
4282.06 5.5867e-14
4284.77 5.3086e-14
4287.48 5.4502e-14
4290.19 5.3913e-14
4292.9 5.3831e-14
4295.61 5.1746e-14
4298.33 4.8711e-14
4301.04 4.9014e-14
4303.75 4.5664e-14
4306.46 4.6295e-14
4309.17 4.6195e-14
4311.88 4.8591e-14
4314.59 5.0408e-14
4317.3 5.3431e-14
4320.02 5.5464e-14
4322.73 5.4243e-14
4325.44 5.4419e-14
4328.15 5.2401e-14
4330.86 5.3e-14
4333.57 5.2346e-14
4336.28 5.251e-14
4339.0 5.1278e-14
4341.71 4.9521e-14
4344.42 5.1195e-14
4347.13 5.2846e-14
4349.84 5.3045e-14
4352.55 5.3738e-14
4355.26 5.3122e-14
4357.97 5.5866e-14
4360.69 5.7932e-14
4363.4 5.8529e-14
4366.11 5.893e-14
4368.82 5.8823e-14
4371.53 5.6481e-14
4374.24 5.6405e-14
4376.95 5.6165e-14
4379.67 5.7026e-14
4382.38 5.4223e-14
4385.09 5.4411e-14
4387.8 5.334e-14
4390.51 5.35e-14
4393.22 5.5593e-14
4395.93 5.7706e-14
4398.64 5.7121e-14
4401.36 5.7983e-14
4404.07 5.838e-14
4406.78 5.8017e-14
4409.49 5.8455e-14
4412.2 5.8139e-14
4414.91 6.0081e-14
4417.62 5.9979e-14
4420.33 5.9576e-14
4423.05 6.0177e-14
4425.76 6.0484e-14
4428.47 6.018e-14
4431.18 5.9678e-14
4433.89 6.0109e-14
4436.6 5.9038e-14
4439.31 5.9557e-14
4442.03 6.1727e-14
4444.74 6.299e-14
4447.45 6.2866e-14
4450.16 6.2343e-14
4452.87 5.994e-14
4455.58 6.2312e-14
4458.29 6.0385e-14
4461.0 6.0014e-14
4463.72 5.8866e-14
4466.43 5.9895e-14
4469.14 6.1065e-14
4471.85 6.1662e-14
4474.56 6.3129e-14
4477.27 6.2856e-14
4479.98 6.3838e-14
4482.7 6.4547e-14
4485.41 6.2893e-14
4488.12 6.1969e-14
4490.83 6.2728e-14
4493.54 6.2949e-14
4496.25 6.4037e-14
4498.96 6.373e-14
4501.67 6.5339e-14
4504.39 6.7045e-14
4507.1 6.6249e-14
4509.81 6.6605e-14
4512.52 6.6745e-14
4515.23 6.7698e-14
4517.94 6.6424e-14
4520.65 6.6486e-14
4523.37 6.61e-14
4526.08 6.4495e-14
4528.79 6.1959e-14
4531.5 6.1196e-14
4534.21 6.1786e-14
4536.92 6.1646e-14
4539.63 6.2372e-14
4542.34 6.464e-14
4545.06 6.4936e-14
4547.77 6.3539e-14
4550.48 6.338e-14
4553.19 6.3972e-14
4555.9 6.4126e-14
4558.61 6.3546e-14
4561.32 6.603e-14
4564.03 6.5707e-14
4566.75 6.7474e-14
4569.46 6.7871e-14
4572.17 6.7278e-14
4574.88 6.6912e-14
4577.59 6.6632e-14
4580.3 6.5751e-14
4583.01 6.6448e-14
4585.73 6.5998e-14
4588.44 6.5592e-14
4591.15 6.5977e-14
4593.86 6.6481e-14
4596.57 6.6658e-14
4599.28 6.4896e-14
4601.99 6.3636e-14
4604.7 6.5873e-14
4607.42 6.6537e-14
4610.13 6.814e-14
4612.84 6.8273e-14
4615.55 6.7512e-14
4618.26 6.8474e-14
4620.97 6.8529e-14
4623.68 6.783e-14
4626.4 6.9077e-14
4629.11 6.818e-14
4631.82 6.7393e-14
4634.53 6.6696e-14
4637.24 6.755e-14
4639.95 6.6879e-14
4642.66 6.5533e-14
4645.37 6.5002e-14
4648.09 6.368e-14
4650.8 6.3904e-14
4653.51 6.5222e-14
4656.22 6.5913e-14
4658.93 6.6033e-14
4661.64 6.633e-14
4664.35 6.5469e-14
4667.06 6.4446e-14
4669.78 6.4461e-14
4672.49 6.4233e-14
4675.2 6.458e-14
4677.91 6.3563e-14
4680.62 6.4867e-14
4683.33 6.5859e-14
4686.04 6.5431e-14
4688.76 6.4921e-14
4691.47 6.423e-14
4694.18 6.4017e-14
4696.89 6.3858e-14
4699.6 6.3956e-14
4702.31 6.4961e-14
4705.02 6.4069e-14
4707.73 6.333e-14
4710.45 6.4073e-14
4713.16 6.3539e-14
4715.87 6.4928e-14
4718.58 6.6811e-14
4721.29 6.7582e-14
4724.0 6.7105e-14
4726.71 6.7091e-14
4729.43 6.6457e-14
4732.14 6.4733e-14
4734.85 6.5141e-14
4737.56 6.6985e-14
4740.27 6.7731e-14
4742.98 6.6418e-14
4745.69 6.7408e-14
4748.4 6.6068e-14
4751.12 6.8373e-14
4753.83 6.7659e-14
4756.54 6.7151e-14
4759.25 6.6781e-14
4761.96 6.5764e-14
4764.67 6.5033e-14
4767.38 6.4878e-14
4770.09 6.5443e-14
4772.81 6.5434e-14
4775.52 6.6653e-14
4778.23 6.6747e-14
4780.94 6.7356e-14
4783.65 6.8834e-14
4786.36 6.746e-14
4789.07 6.8043e-14
4791.79 6.9022e-14
4794.5 6.838e-14
4797.21 6.8826e-14
4799.92 6.7989e-14
4802.63 6.7578e-14
4805.34 6.7374e-14
4808.05 6.6684e-14
4810.76 6.8036e-14
4813.48 6.6925e-14
4816.19 6.7603e-14
4818.9 6.9027e-14
4821.61 6.8531e-14
4824.32 6.6482e-14
4827.03 6.823e-14
4829.74 6.713e-14
4832.46 6.6108e-14
4835.17 6.5636e-14
4837.88 6.5335e-14
4840.59 6.5758e-14
4843.3 6.5217e-14
4846.01 6.2743e-14
4848.72 6.305e-14
4851.43 6.4722e-14
4854.15 6.2401e-14
4856.86 6.2641e-14
4859.57 6.505e-14
4862.28 6.7178e-14
4864.99 6.6731e-14
4867.7 6.5567e-14
4870.41 6.2967e-14
4873.13 5.9807e-14
4875.84 5.9931e-14
4878.55 6.1656e-14
4881.26 6.2394e-14
4883.97 6.2344e-14
4886.68 6.3109e-14
4889.39 6.235e-14
4892.1 6.4217e-14
4894.82 6.5844e-14
4897.53 6.6599e-14
4900.24 6.7848e-14
4902.95 6.8373e-14
4905.66 6.7824e-14
4908.37 6.81e-14
4911.08 6.611e-14
4913.79 6.6682e-14
4916.51 6.4632e-14
4919.22 6.539e-14
4921.93 6.2073e-14
4924.64 6.4411e-14
4927.35 6.5331e-14
4930.06 6.6587e-14
4932.77 6.6706e-14
4935.49 6.7314e-14
4938.2 6.5711e-14
4940.91 6.7278e-14
4943.62 6.7928e-14
4946.33 6.9767e-14
4949.04 6.8588e-14
4951.75 6.8382e-14
4954.46 7.0328e-14
4957.18 6.9201e-14
4959.89 6.7962e-14
4962.6 6.6698e-14
4965.31 6.5986e-14
4968.02 6.657e-14
4970.73 6.7339e-14
4973.44 6.7229e-14
4976.16 6.5101e-14
4978.87 6.5041e-14
4981.58 6.4818e-14
4984.29 6.3878e-14
4987.0 6.3614e-14
4989.71 6.3225e-14
4992.42 6.4906e-14
4995.13 6.2916e-14
4997.85 6.575e-14
5000.56 6.5918e-14
5003.27 6.5436e-14
5005.98 6.7087e-14
5008.69 6.684e-14
5011.4 6.6058e-14
5014.11 6.5548e-14
5016.82 6.5396e-14
5019.54 6.135e-14
5022.25 6.2268e-14
5024.96 6.1033e-14
5027.67 6.3718e-14
5030.38 6.3446e-14
5033.09 6.4334e-14
5035.8 6.3601e-14
5038.52 6.3239e-14
5041.23 6.2453e-14
5043.94 6.3017e-14
5046.65 6.4196e-14
5049.36 6.5328e-14
5052.07 6.5642e-14
5054.78 6.5891e-14
5057.49 6.7791e-14
5060.21 6.7592e-14
5062.92 6.6655e-14
5065.63 6.5879e-14
5068.34 6.475e-14
5071.05 6.6446e-14
5073.76 6.5663e-14
5076.47 6.2994e-14
5079.19 6.2478e-14
5081.9 6.4871e-14
5084.61 6.3301e-14
5087.32 6.3509e-14
5090.03 6.254e-14
5092.74 6.5172e-14
5095.45 6.6448e-14
5098.16 6.6355e-14
5100.88 6.486e-14
5103.59 6.3724e-14
5106.3 6.532e-14
5109.01 6.5551e-14
5111.72 6.5261e-14
5114.43 6.5028e-14
5117.14 6.7099e-14
5119.85 6.4362e-14
5122.57 6.3986e-14
5125.28 6.3135e-14
5127.99 6.2889e-14
5130.7 6.271e-14
5133.41 6.2922e-14
5136.12 6.383e-14
5138.83 6.3593e-14
5141.55 6.2885e-14
5144.26 6.3351e-14
5146.97 6.2198e-14
5149.68 6.1337e-14
5152.39 6.1068e-14
5155.1 6.3596e-14
5157.81 6.5145e-14
5160.52 6.4272e-14
5163.24 6.2961e-14
5165.95 5.96e-14
5168.66 5.7469e-14
5171.37 5.7427e-14
5174.08 5.4414e-14
5176.79 5.6449e-14
5179.5 5.7559e-14
5182.22 5.8212e-14
5184.93 5.9123e-14
5187.64 5.999e-14
5190.35 6.0563e-14
5193.06 6.2423e-14
5195.77 6.4013e-14
5198.48 6.4136e-14
5201.19 6.5475e-14
5203.91 6.5253e-14
5206.62 6.3841e-14
5209.33 6.4716e-14
5212.04 6.2836e-14
5214.75 6.2814e-14
5217.46 6.4294e-14
5220.17 6.4586e-14
5222.89 6.6009e-14
5225.6 6.4267e-14
5228.31 6.4008e-14
5231.02 6.4529e-14
5233.73 6.5054e-14
5236.44 6.5478e-14
5239.15 6.8771e-14
5241.86 6.9486e-14
5244.58 6.9035e-14
5247.29 6.8718e-14
5250.0 6.7909e-14
5252.71 6.7042e-14
5255.42 6.7598e-14
5258.13 6.7042e-14
5260.84 6.478e-14
5263.55 6.508e-14
5266.27 6.3494e-14
5268.98 6.1803e-14
5271.69 6.1705e-14
5274.4 6.4114e-14
5277.11 6.5902e-14
5279.82 6.6831e-14
5282.53 7.0446e-14
5285.25 7.1011e-14
5287.96 7.0641e-14
5290.67 7.0874e-14
5293.38 6.994e-14
5296.09 7.0548e-14
5298.8 7.1322e-14
5301.51 7.1982e-14
5304.22 7.1788e-14
5306.94 7.2518e-14
5309.65 7.2955e-14
5312.36 7.32e-14
5315.07 7.2545e-14
5317.78 7.3092e-14
5320.49 7.0343e-14
5323.2 6.9208e-14
5325.92 6.6104e-14
5328.63 6.747e-14
5331.34 6.7596e-14
5334.05 6.8966e-14
5336.76 6.8346e-14
5339.47 6.8928e-14
5342.18 6.9673e-14
5344.89 6.9788e-14
5347.61 7.1373e-14
5350.32 6.9163e-14
5353.03 7.1725e-14
5355.74 7.3786e-14
5358.45 7.3587e-14
5361.16 7.4046e-14
5363.87 7.1647e-14
5366.58 6.9902e-14
5369.3 6.8945e-14
5372.01 6.9118e-14
5374.72 6.8805e-14
5377.43 7.0002e-14
5380.14 7.1123e-14
5382.85 7.1472e-14
5385.56 7.1188e-14
5388.28 6.935e-14
5390.99 6.9422e-14
5393.7 6.9842e-14
5396.41 6.8948e-14
5399.12 6.8608e-14
5401.83 6.7717e-14
5404.54 6.8094e-14
5407.25 6.7552e-14
5409.97 6.7846e-14
5412.68 6.7916e-14
5415.39 6.9552e-14
5418.1 7.1747e-14
5420.81 7.1034e-14
5423.52 7.1402e-14
5426.23 7.0588e-14
5428.95 6.8189e-14
5431.66 6.9367e-14
