# col1 col2
# An Atlas of Galaxy Spectral Energy Distributions from the Ultraviolet to the Mid-Infrared
# Brown et al. (2014)
# http://dx.doi.org/10.5072/03/529D3551F0117
# 
# Column 1 : Restframe Wavelength (Angstrom)
# Column 2 : Flux per unit wavelength (ergs/s/cm^2/Angstrom)
# Column 3 : Observed wavelength (Angstrom)
# Column 4 : Source (0 = model, 1 = Optical Spectrum, 2 = Akari, 3 = Spitzer IRS)
# 
100.03 4.4501e-29
101.89 7.787e-29
104.02 1.2313e-28
105.96 1.9741e-28
107.93 3.1942e-28
109.93 5.8799e-28
114.06 1.3255e-27
118.07 2.7376e-27
121.1 1.3532e-26
125.06 2.5256e-26
127.1 3.3218e-26
127.98 3.867e-26
130.96 5.6803e-26
131.87 7.3008e-26
134.01 9.2762e-26
137.13 1.5114e-25
140.0 2.1202e-25
142.93 6.9883e-25
146.94 2.2406e-24
151.05 3.2462e-24
154.93 4.7029e-24
158.9 6.751e-24
161.86 8.717e-24
166.01 1.2313e-23
169.88 1.6802e-23
173.03 2.1202e-23
177.07 2.8338e-23
179.94 3.5024e-23
182.03 4.0213e-23
185.84 5.2646e-23
191.04 7.2505e-23
194.15 8.7977e-23
198.21 1.1152e-22
201.9 1.4105e-22
205.18 1.6725e-22
209.96 2.1007e-22
215.84 2.9879e-22
219.85 3.6675e-22
222.91 4.1915e-22
227.06 5.1094e-22
230.21 8.6173e-22
233.96 1.612e-21
239.96 2.4455e-21
246.11 2.8143e-21
251.84 3.6006e-21
257.12 3.5267e-21
260.1 4.4501e-21
263.71 5.2284e-21
269.24 6.003e-21
274.24 6.8292e-21
278.7 7.7334e-21
283.88 8.7775e-21
289.82 9.6687e-21
295.89 1.1256e-20
300.7 1.2342e-20
307.7 1.4533e-20
317.78 1.8129e-20
328.2 2.1846e-20
338.17 2.5845e-20
347.64 3.0225e-20
357.38 3.4863e-20
365.71 4.0306e-20
375.09 4.5433e-20
384.71 4.9931e-20
394.58 5.8664e-20
404.7 6.6737e-20
414.13 7.3514e-20
421.83 7.9135e-20
429.67 8.5383e-20
440.69 9.6243e-20
450.95 1.0504e-19
460.4 1.1282e-19
470.04 1.2342e-19
479.88 1.3563e-19
489.93 1.4533e-19
500.19 1.6083e-19
505.98 2.0154e-19
511.84 5.1212e-19
520.16 5.6934e-19
529.83 6.4175e-19
539.68 6.6125e-19
549.71 1.0171e-18
559.93 1.3043e-18
570.34 1.5862e-18
579.61 1.6046e-18
590.38 2.1447e-18
599.97 2.3734e-18
609.72 3.0225e-18
619.63 3.6759e-18
629.7 4.24e-18
639.93 4.5016e-18
650.33 5.4874e-18
657.86 6.1428e-18
665.48 6.7355e-18
674.73 7.151e-18
685.7 7.4023e-18
695.24 1.0195e-17
704.91 1.0124e-17
716.36 1.2923e-17
726.33 1.404e-17
734.74 1.5183e-17
744.96 1.8046e-17
755.32 2.0108e-17
765.83 2.2252e-17
774.7 2.5198e-17
785.48 2.8403e-17
794.57 3.0646e-17
805.62 3.3141e-17
814.95 3.5511e-17
824.39 4.0492e-17
835.86 3.4148e-17
845.54 4.5433e-17
855.33 4.8458e-17
865.23 5.3873e-17
875.25 5.9754e-17
885.39 6.72e-17
895.64 7.3008e-17
906.01 7.5053e-17
914.39 1.2257e-16
924.98 9.2123e-16
935.69 2.1056e-15
944.35 4.1722e-15
955.28 6.0725e-15
964.12 7.0529e-15
975.29 1.1204e-15
984.31 6.257e-15
995.71 6.7978e-15
1004.92 1.0195e-14
1014.22 1.0009e-14
1025.97 4.3288e-15
1035.46 7.2672e-15
1045.04 1.4334e-14
1054.71 1.4334e-14
1064.47 1.1518e-14
1074.32 1.404e-14
1084.26 1.1282e-14
1094.29 1.5324e-14
1104.42 1.4872e-14
1114.64 1.4467e-14
1124.95 1.3133e-14
1135.36 1.7154e-14
1145.86 1.579e-14
1153.81 1.7115e-14
1164.48 1.7963e-14
1175.26 1.2484e-14
1186.13 1.8087e-14
1194.35 1.2746e-14
1205.4 9.17e-15
1213.76 6.1428e-15
1224.99 1.3073e-14
1236.33 2.0154e-14
1244.9 2.2303e-14
1256.41 2.1497e-14
1265.12 1.8852e-14
1273.89 2.4287e-14
1285.68 2.5608e-14
1294.59 2.0247e-14
1303.57 2.0624e-14
1315.63 2.5964e-14
1324.75 2.4967e-14
1333.93 2.2406e-14
1346.27 2.6876e-14
1355.6 2.6325e-14
1365.0 2.3789e-14
1374.46 2.514e-14
1383.99 2.5726e-14
1393.58 2.2303e-14
1406.48 2.3571e-14
1416.23 2.4568e-14
1426.04 2.5431e-14
1435.93 2.5726e-14
1442.56 2.725e-14
1445.88 2.7629e-14
1455.9 2.7063e-14
1466.0 2.5256e-14
1476.16 2.5549e-14
1486.39 2.6144e-14
1496.69 2.6691e-14
1503.6 2.5314e-14
1510.54 2.2666e-14
1517.51 2.4343e-14
1524.52 2.4064e-14
1535.09 2.1104e-14
1545.73 2.2981e-14
1556.44 2.2099e-14
1563.63 2.2928e-14
1574.46 2.4568e-14
1585.38 2.5845e-14
1596.37 2.6508e-14
1603.74 2.6325e-14
1614.85 2.6753e-14
1626.05 2.5608e-14
1633.55 2.7502e-14
1644.87 2.8014e-14
1656.28 2.6386e-14
1663.92 2.8798e-14
1671.6 2.6508e-14
1675.45 2.9065e-14
1683.19 3.0295e-14
1694.86 2.8798e-14
1706.6 2.7821e-14
1714.48 2.6386e-14
1726.37 2.6447e-14
1734.33 2.8338e-14
1746.36 2.7821e-14
1754.42 2.9674e-14
1766.58 2.7693e-14
1774.73 2.8208e-14
1787.03 2.8998e-14
1795.28 3.0858e-14
1803.57 3.1072e-14
1816.07 2.8534e-14
1824.45 2.9605e-14
1837.1 2.8666e-14
1845.58 2.6508e-14
1854.1 2.6508e-14
1866.95 2.7439e-14
1875.57 3.0086e-14
1884.23 2.7566e-14
1892.92 2.6264e-14
1906.04 2.8534e-14
1914.84 2.725e-14
1923.68 2.6814e-14
1937.01 2.8273e-14
1945.95 2.9266e-14
1954.94 2.7313e-14
1968.49 3.0156e-14
1977.57 3.1287e-14
1982.13 2.9537e-14
1995.87 2.8865e-14
2005.09 3.0156e-14
2014.34 2.9334e-14
2023.64 3.1072e-14
2032.98 2.9132e-14
2047.07 3.0225e-14
2056.52 2.9132e-14
2066.01 2.9605e-14
2075.55 3.1577e-14
2080.33 2.9537e-14
2085.13 3.0929e-14
2094.75 2.9401e-14
2104.42 3.0086e-14
2114.14 3.0505e-14
2123.89 3.1072e-14
2133.7 2.9537e-14
2143.55 2.9742e-14
2153.44 3.1144e-14
2163.38 3.0575e-14
2173.37 3.0435e-14
2183.4 2.9742e-14
2193.48 3.1144e-14
2203.6 3.0575e-14
2213.77 2.9605e-14
2223.99 2.8732e-14
2234.25 3.0225e-14
2244.57 2.9401e-14
2254.93 2.86e-14
2265.34 2.9334e-14
2275.79 2.9953e-14
2286.3 3.0584e-14
2296.85 2.9144e-14
2307.45 2.9215e-14
2312.77 2.8225e-14
2323.45 2.2892e-14
2334.17 2.6962e-14
2344.95 2.6657e-14
2355.77 2.7917e-14
2366.64 2.6603e-14
2377.57 2.7101e-14
2383.05 2.5942e-14
2394.05 2.7357e-14
2405.1 2.6371e-14
2416.2 2.6865e-14
2427.35 2.7813e-14
2432.95 2.6809e-14
2444.18 2.8076e-14
2455.46 2.7759e-14
2466.79 2.7699e-14
2472.48 2.7008e-14
2483.89 2.7897e-14
2495.36 2.6279e-14
2506.88 2.8555e-14
2512.65 2.6589e-14
2518.45 2.7589e-14
2524.25 2.6532e-14
2535.9 2.672e-14
2547.61 2.6236e-14
2553.48 2.7474e-14
2565.27 2.7164e-14
2577.11 2.8318e-14
2583.05 2.8255e-14
2594.97 2.8129e-14
2606.95 2.7429e-14
2612.96 2.7305e-14
2625.02 2.7881e-14
2637.14 2.8208e-14
2643.22 2.954e-14
2655.42 2.9613e-14
2667.67 2.8089e-14
2673.82 2.9012e-14
2686.17 2.8883e-14
2692.36 2.8098e-14
2704.78 2.8428e-14
2717.27 2.7785e-14
2723.53 2.7787e-14
2736.11 2.8768e-14
2742.41 2.6543e-14
2755.07 2.6731e-14
2767.79 2.7295e-14
2774.17 2.8191e-14
2786.97 2.7745e-14
2793.4 2.4503e-14
2806.29 2.584e-14
2812.76 2.827e-14
2825.74 2.8536e-14
2832.26 2.7443e-14
2845.33 2.7258e-14
2851.89 2.7135e-14
2865.05 2.8223e-14
2878.28 2.7904e-14
2884.91 2.8035e-14
2898.23 2.7847e-14
2911.61 2.883e-14
2931.79 2.8311e-14
2952.11 2.7994e-14
2972.58 2.8195e-14
2993.18 2.8202e-14
3006.99 2.8272e-14
3027.84 2.8345e-14
3048.83 2.8157e-14
3069.96 2.8099e-14
3091.24 2.8107e-14
3112.67 2.7921e-14
3127.04 2.7733e-14
3148.71 2.7741e-14
3170.54 2.7621e-14
3192.51 2.6875e-14
3207.25 2.7317e-14
3229.48 2.6826e-14
3251.87 2.7206e-14
3266.88 2.74e-14
3289.52 2.7282e-14
3312.32 2.7289e-14
3319.96 2.7799e-14
3327.61 2.7994e-14
3335.28 2.8126e-14
3342.97 2.6863e-14
3350.68 2.7938e-14
3358.4 2.6499e-14
3366.14 2.6871e-14
3373.91 2.6201e-14
3381.68 2.6568e-14
3389.48 2.7631e-14
3397.29 2.7507e-14
3405.12 2.6698e-14
3412.97 2.6886e-14
3420.84 2.7263e-14
3428.73 2.7265e-14
3436.63 2.7331e-14
3444.55 2.6284e-14
3452.49 2.7908e-14
3460.45 2.6411e-14
3468.43 2.6413e-14
3476.43 2.6174e-14
3484.44 2.6358e-14
3492.47 2.6727e-14
3500.52 2.6242e-14
3508.59 2.6064e-14
3516.68 2.5709e-14
3524.79 2.6431e-14
3532.91 2.6556e-14
3541.06 2.6928e-14
3549.22 2.7368e-14
3557.4 2.681e-14
3565.6 2.7311e-14
3573.82 2.6386e-14
3582.06 2.5435e-14
3590.32 2.4574e-14
3598.59 2.5853e-14
3606.89 2.5796e-14
3615.2 2.6158e-14
3623.54 2.6463e-14
3631.89 2.8099e-14
3640.26 2.6775e-14
3648.66 2.6716e-14
3657.07 2.7405e-14
3665.5 2.7156e-14
3671.93 2.4926e-14
3674.63 2.4816e-14
3677.34 2.3563e-14
3680.05 2.5761e-14
3682.75 2.6751e-14
3685.46 2.5759e-14
3688.17 2.5939e-14
3690.87 2.6966e-14
3693.58 2.5453e-14
3696.29 2.3913e-14
3699.0 2.602e-14
3701.7 2.5667e-14
3704.41 2.4012e-14
3707.12 2.4941e-14
3709.82 2.5843e-14
3712.53 2.6889e-14
3715.24 2.7138e-14
3717.94 2.9834e-14
3720.65 3.4833e-14
3723.36 4.7789e-14
3726.06 6.0152e-14
3728.77 6.5911e-14
3731.48 5.8749e-14
3734.18 4.3455e-14
3736.89 3.5791e-14
3739.6 3.3305e-14
3742.31 3.1167e-14
3745.01 2.9452e-14
3747.72 2.8638e-14
3750.43 2.5983e-14
3753.13 2.5926e-14
3755.84 2.7661e-14
3758.55 3.0227e-14
3761.25 3.099e-14
3763.96 3.0407e-14
3766.67 2.8515e-14
3769.37 2.8003e-14
3772.08 2.8409e-14
3774.79 3.0118e-14
3777.49 3.223e-14
3780.2 3.4805e-14
3782.91 3.6645e-14
3785.61 3.6719e-14
3788.32 3.5813e-14
3791.03 3.3467e-14
3793.74 3.089e-14
3796.44 2.8873e-14
3799.15 2.8881e-14
3801.86 2.9595e-14
3804.56 3.0381e-14
3807.27 3.3389e-14
3809.98 3.5027e-14
3812.68 3.5352e-14
3815.39 3.5476e-14
3818.1 3.601e-14
3820.8 3.7056e-14
3823.51 3.3419e-14
3826.22 3.2657e-14
3828.92 3.1739e-14
3831.63 2.9381e-14
3834.34 2.8329e-14
3837.05 2.5811e-14
3839.75 2.7477e-14
3842.46 3.1038e-14
3845.17 3.2447e-14
3847.87 3.5095e-14
3850.58 3.8968e-14
3853.29 3.917e-14
3855.99 4.0448e-14
3858.7 4.0744e-14
3861.41 3.8452e-14
3864.11 4.0102e-14
3866.82 4.0885e-14
3869.53 3.8848e-14
3872.23 3.855e-14
3874.94 3.8332e-14
3877.65 3.5602e-14
3880.35 3.499e-14
3883.06 3.5117e-14
3885.77 3.2321e-14
3888.48 3.0869e-14
3891.18 2.9405e-14
3893.89 2.9046e-14
3896.6 3.2216e-14
3899.3 3.4579e-14
3902.01 3.5107e-14
3904.72 3.7016e-14
3907.42 3.8417e-14
3910.13 3.9031e-14
3912.84 4.0559e-14
3915.54 4.0274e-14
3918.25 4.0028e-14
3920.96 3.8211e-14
3923.66 3.8372e-14
3926.37 3.7204e-14
3929.08 3.4028e-14
3931.79 3.299e-14
3934.49 3.2752e-14
3937.2 3.1784e-14
3939.91 3.5712e-14
3942.61 3.7368e-14
3945.32 3.6905e-14
3948.03 3.7702e-14
3950.73 3.7341e-14
3953.44 3.7242e-14
3956.15 3.8313e-14
3958.85 3.5832e-14
3961.56 3.3563e-14
3964.27 3.1471e-14
3966.97 2.7676e-14
3969.68 2.714e-14
3972.39 2.8184e-14
3975.09 2.8841e-14
3977.8 3.1537e-14
3980.51 3.4486e-14
3983.22 3.6244e-14
3985.92 3.8631e-14
3988.63 4.0438e-14
3991.34 4.1499e-14
3994.04 4.2136e-14
3996.75 4.1848e-14
3999.46 4.2325e-14
4002.16 4.2173e-14
4004.87 4.2272e-14
4007.58 4.0705e-14
4010.28 3.9749e-14
4012.99 4.2404e-14
4015.7 4.1832e-14
4018.4 4.3302e-14
4021.11 4.2938e-14
4023.82 4.2548e-14
4026.53 4.2159e-14
4029.23 4.0789e-14
4031.94 4.0869e-14
4034.65 4.1923e-14
4037.35 4.1177e-14
4040.06 4.1672e-14
4042.77 4.2137e-14
4045.47 4.257e-14
4048.18 4.173e-14
4050.89 4.1594e-14
4053.59 4.2049e-14
4056.3 4.1809e-14
4059.01 4.0234e-14
4061.71 4.0611e-14
4064.42 4.0925e-14
4067.13 4.0984e-14
4069.84 4.1469e-14
4072.54 4.1691e-14
4075.25 4.1271e-14
4077.96 4.0745e-14
4080.66 3.9573e-14
4083.37 3.9217e-14
4086.08 3.8336e-14
4088.78 3.8264e-14
4091.49 3.7417e-14
4094.2 3.6058e-14
4096.9 3.578e-14
4099.61 3.4859e-14
4102.32 3.3622e-14
4105.02 3.2661e-14
4107.73 3.4467e-14
4110.44 3.59e-14
4113.14 3.6016e-14
4115.85 3.6939e-14
4118.56 3.7104e-14
4121.27 3.7453e-14
4123.97 3.8061e-14
4126.68 3.8508e-14
4129.39 3.8466e-14
4132.09 3.912e-14
4134.8 3.939e-14
4137.51 4.0533e-14
4140.21 4.0377e-14
4142.92 4.0485e-14
4145.63 4.0381e-14
4148.33 4.0145e-14
4151.04 3.8767e-14
4153.75 3.9863e-14
4156.45 4.0917e-14
4159.16 4.075e-14
4161.87 4.0888e-14
4164.58 3.9865e-14
4167.28 4.0116e-14
4169.99 3.9857e-14
4172.7 3.983e-14
4175.4 3.8568e-14
4178.11 3.9359e-14
4180.82 3.9894e-14
4183.52 3.9043e-14
4186.23 3.8728e-14
4188.94 3.9517e-14
4191.64 3.9411e-14
4194.35 4.0605e-14
4197.06 3.9857e-14
4199.76 3.8879e-14
4202.47 3.8927e-14
4205.18 3.9683e-14
4207.88 3.9715e-14
4210.59 3.9035e-14
4213.3 3.9913e-14
4216.01 3.9726e-14
4218.71 3.9639e-14
4221.42 3.9399e-14
4224.13 3.8602e-14
4226.83 3.8965e-14
4229.54 3.8577e-14
4232.25 3.8812e-14
4234.95 4.0063e-14
4237.66 4.0576e-14
4240.37 3.9573e-14
4243.07 4.0598e-14
4245.78 4.0067e-14
4248.49 3.9897e-14
4251.19 4.0039e-14
4253.9 3.8645e-14
4256.61 4.0161e-14
4259.32 4.022e-14
4262.02 3.9856e-14
4264.73 4.0002e-14
4267.44 3.9154e-14
4270.14 3.8063e-14
4272.85 3.8606e-14
4275.56 3.8923e-14
4278.26 3.9771e-14
4280.97 3.9941e-14
4283.68 3.95e-14
4286.38 3.8669e-14
4289.09 3.8161e-14
4291.8 3.821e-14
4294.5 3.8076e-14
4297.21 3.7881e-14
4299.92 3.7043e-14
4302.62 3.6008e-14
4305.33 3.6316e-14
4308.04 3.6467e-14
4310.75 3.6934e-14
4313.45 3.7147e-14
4316.16 3.8444e-14
4318.87 3.8208e-14
4321.57 3.8134e-14
4324.28 3.7356e-14
4326.99 3.6689e-14
4329.69 3.7278e-14
4332.4 3.6701e-14
4335.11 3.7611e-14
4337.81 3.8828e-14
4340.52 3.9609e-14
4343.23 3.7401e-14
4345.93 3.5376e-14
4348.64 3.4291e-14
4351.35 3.5712e-14
4354.06 3.6284e-14
4356.76 3.6607e-14
4359.47 3.7878e-14
4362.18 3.9015e-14
4364.88 3.8809e-14
4367.59 3.9427e-14
4370.3 4.0106e-14
4373.0 3.8196e-14
4375.71 3.8286e-14
4378.42 3.7984e-14
4381.12 3.8265e-14
4383.83 3.6817e-14
4386.54 3.7635e-14
4389.24 3.8529e-14
4391.95 3.8287e-14
4394.66 3.8138e-14
4397.36 3.7874e-14
4400.07 3.7859e-14
4402.78 3.8436e-14
4405.49 3.9185e-14
4408.19 3.7364e-14
4410.9 3.8116e-14
4413.61 3.9185e-14
4416.31 3.8378e-14
4419.02 3.8835e-14
4421.73 3.8657e-14
4424.43 3.9641e-14
4427.14 3.9326e-14
4429.85 3.9142e-14
4432.55 3.9861e-14
4435.26 3.8888e-14
4437.97 3.8186e-14
4440.67 3.8973e-14
4443.38 3.8864e-14
4446.09 3.9402e-14
4448.8 4.0114e-14
4451.5 4.0077e-14
4454.21 3.9825e-14
4456.92 3.9752e-14
4459.62 3.9787e-14
4462.33 3.98e-14
4465.04 3.9428e-14
4467.74 3.9548e-14
4470.45 3.9735e-14
4473.16 3.9637e-14
4475.86 3.9405e-14
4478.57 3.9045e-14
4481.28 3.9627e-14
4483.98 3.9625e-14
4486.69 4.0156e-14
4489.4 3.9798e-14
4492.11 4.0162e-14
4494.81 3.9561e-14
4497.52 4.0059e-14
4500.23 4.0738e-14
4502.93 4.0812e-14
4505.64 4.0848e-14
4508.35 4.1247e-14
4511.05 4.1161e-14
4513.76 4.0758e-14
4516.47 4.0752e-14
4519.17 4.0063e-14
4521.88 3.9477e-14
4524.59 3.8899e-14
4527.29 3.9502e-14
4530.0 3.9542e-14
4532.71 3.917e-14
4535.41 3.8861e-14
4538.12 3.9897e-14
4540.83 4.0547e-14
4543.54 3.9446e-14
4546.24 3.9551e-14
4548.95 4.0092e-14
4551.66 3.9298e-14
4554.36 3.8211e-14
4557.07 3.937e-14
4559.78 3.986e-14
4562.48 4.02e-14
4565.19 4.034e-14
4567.9 4.0352e-14
4570.6 4.0131e-14
4573.31 4.0461e-14
4576.02 4.02e-14
4578.72 4.0033e-14
4581.43 3.9401e-14
4584.14 3.9316e-14
4586.85 3.9306e-14
4589.55 3.9866e-14
4592.26 3.9451e-14
4594.97 3.9648e-14
4597.67 3.9613e-14
4600.38 4.0083e-14
4603.09 3.9912e-14
4605.79 4.02e-14
4608.5 4.0804e-14
4611.21 4.0979e-14
4613.91 4.0552e-14
4616.62 4.0934e-14
4619.33 4.0866e-14
4622.03 4.0961e-14
4624.74 4.0985e-14
4627.45 4.0527e-14
4630.15 4.0616e-14
4632.86 4.0893e-14
4635.57 4e-14
4638.28 3.9526e-14
4640.98 3.9604e-14
4643.69 3.9547e-14
4646.4 3.8052e-14
4649.1 3.8555e-14
4651.81 3.8866e-14
4654.52 3.8808e-14
4657.22 3.9838e-14
4659.93 3.979e-14
4662.64 3.9102e-14
4665.34 3.9154e-14
4668.05 3.9165e-14
4670.76 3.8419e-14
4673.46 3.8391e-14
4676.17 3.9055e-14
4678.88 3.911e-14
4681.59 3.9429e-14
4684.29 3.9641e-14
4687.0 3.9063e-14
4689.71 3.9527e-14
4692.41 3.9899e-14
4695.12 3.9074e-14
4697.83 3.9185e-14
4700.53 3.8658e-14
4703.24 3.792e-14
4705.95 3.7399e-14
4708.65 3.7746e-14
4711.36 3.8354e-14
4714.07 3.8818e-14
4716.77 3.8526e-14
4719.48 3.8988e-14
4722.19 3.8991e-14
4724.89 3.853e-14
4727.6 3.8106e-14
4730.31 3.7646e-14
4733.02 3.7888e-14
4735.72 3.7725e-14
4738.43 3.767e-14
4741.14 3.8363e-14
4743.84 3.8436e-14
4746.55 3.7899e-14
4749.26 3.7955e-14
4751.96 3.8138e-14
4754.67 3.8411e-14
4757.38 3.8466e-14
4760.08 3.7527e-14
4762.79 3.6663e-14
4765.5 3.6574e-14
4768.2 3.7134e-14
4770.91 3.7887e-14
4773.62 3.7956e-14
4776.33 3.7765e-14
4779.03 3.8409e-14
4781.74 3.8604e-14
4784.45 3.8016e-14
4787.15 3.8001e-14
4789.86 3.7929e-14
4792.57 3.8425e-14
4795.27 3.8644e-14
4797.98 3.8183e-14
4800.69 3.8123e-14
4803.39 3.7676e-14
4806.1 3.7689e-14
4808.81 3.8326e-14
4811.51 3.7958e-14
4814.22 3.7956e-14
4816.93 3.7884e-14
4819.63 3.7683e-14
4822.34 3.7243e-14
4825.05 3.6366e-14
4827.76 3.6122e-14
4830.46 3.6699e-14
4833.17 3.6406e-14
4835.88 3.6162e-14
4838.58 3.7043e-14
4841.29 3.7129e-14
4844.0 3.6116e-14
4846.7 3.5774e-14
4849.41 3.5965e-14
4852.12 3.8105e-14
4854.82 4.1704e-14
4857.53 4.9378e-14
4860.24 5.5612e-14
4862.94 5.4753e-14
4865.65 4.6552e-14
4868.36 3.9289e-14
4871.07 3.5122e-14
4873.77 3.3797e-14
4876.48 3.4176e-14
4879.19 3.4286e-14
4881.89 3.5122e-14
4884.6 3.489e-14
4887.31 3.4317e-14
4890.01 3.5095e-14
4892.72 3.5563e-14
4895.43 3.6236e-14
4898.13 3.6729e-14
4900.84 3.6991e-14
4903.55 3.6862e-14
4906.25 3.6659e-14
4908.96 3.6028e-14
4911.67 3.6041e-14
4914.37 3.6163e-14
4917.08 3.5896e-14
4919.79 3.4721e-14
4922.5 3.4717e-14
4925.2 3.5319e-14
4927.91 3.6587e-14
4930.62 3.6495e-14
4933.32 3.6466e-14
4936.03 3.654e-14
4938.74 3.6453e-14
4941.44 3.666e-14
4944.15 3.669e-14
4946.86 3.7766e-14
4949.56 3.8497e-14
4952.27 3.9979e-14
4954.98 4.1152e-14
4957.68 4.1978e-14
4960.39 4.226e-14
4963.1 4.0882e-14
4965.81 3.8173e-14
4968.51 3.7038e-14
4971.22 3.6708e-14
4973.93 3.6371e-14
4976.63 3.6385e-14
4979.34 3.5968e-14
4982.05 3.5339e-14
4984.75 3.5512e-14
4987.46 3.5695e-14
4990.17 3.6106e-14
4992.87 3.6318e-14
4995.58 3.7569e-14
4998.29 3.9058e-14
5000.99 4.4227e-14
5003.7 5.0125e-14
5006.41 5.5109e-14
5009.11 5.32e-14
5011.82 4.6864e-14
5014.53 4.0944e-14
5017.24 3.6963e-14
5019.94 3.5934e-14
5022.65 3.599e-14
5025.36 3.58e-14
5028.06 3.5306e-14
5030.77 3.5499e-14
5033.48 3.5635e-14
5036.18 3.5675e-14
5038.89 3.4845e-14
5041.6 3.4698e-14
5044.3 3.4919e-14
5047.01 3.5091e-14
5049.72 3.5268e-14
5052.42 3.5591e-14
5055.13 3.6254e-14
5057.84 3.6261e-14
5060.55 3.6717e-14
5063.25 3.6735e-14
5065.96 3.648e-14
5068.67 3.5415e-14
5071.37 3.5627e-14
5074.08 3.5072e-14
5076.79 3.5027e-14
5079.49 3.5006e-14
5082.2 3.5035e-14
5084.91 3.496e-14
5087.61 3.5158e-14
5090.32 3.5614e-14
5093.03 3.5638e-14
5095.73 3.5267e-14
5098.44 3.4794e-14
5101.15 3.525e-14
5103.85 3.4706e-14
5106.56 3.4962e-14
5109.27 3.5095e-14
5111.98 3.5307e-14
5114.68 3.5719e-14
5117.39 3.5561e-14
5120.1 3.5553e-14
5122.8 3.4763e-14
5125.51 3.469e-14
5128.22 3.4648e-14
5130.92 3.4557e-14
5133.63 3.4246e-14
5136.34 3.4412e-14
5139.04 3.4213e-14
5141.75 3.376e-14
5144.46 3.4293e-14
5147.16 3.3841e-14
5149.87 3.3728e-14
5152.58 3.4492e-14
5155.29 3.5151e-14
5157.99 3.5311e-14
5160.7 3.4941e-14
5163.41 3.3795e-14
5166.11 3.3223e-14
5168.82 3.2942e-14
5171.53 3.1904e-14
5174.23 3.1959e-14
5176.94 3.2557e-14
5179.65 3.3118e-14
5182.35 3.3217e-14
5185.06 3.2756e-14
5187.77 3.2848e-14
5190.47 3.4044e-14
5193.18 3.4166e-14
5195.89 3.4739e-14
5198.59 3.5808e-14
5201.3 3.5856e-14
5204.01 3.502e-14
5206.72 3.4326e-14
5209.42 3.4721e-14
5212.13 3.4376e-14
5214.84 3.4171e-14
5217.54 3.4998e-14
5220.25 3.4671e-14
5222.96 3.431e-14
5225.66 3.4295e-14
5228.37 3.4491e-14
5231.08 3.4604e-14
5233.78 3.4491e-14
5236.49 3.4735e-14
5239.2 3.5545e-14
5241.9 3.5081e-14
5244.61 3.537e-14
5247.32 3.496e-14
5250.03 3.4712e-14
5252.73 3.4841e-14
5255.44 3.4979e-14
5258.15 3.5042e-14
5260.85 3.454e-14
5263.56 3.3713e-14
5266.27 3.2979e-14
5268.97 3.3603e-14
5271.68 3.3346e-14
5274.39 3.4524e-14
5277.09 3.4857e-14
5279.8 3.497e-14
5282.51 3.518e-14
5285.21 3.5583e-14
5287.92 3.5951e-14
5290.63 3.5939e-14
5293.34 3.58e-14
5296.04 3.5635e-14
5298.75 3.5145e-14
5301.46 3.5572e-14
5304.16 3.5601e-14
5306.87 3.5822e-14
5309.58 3.591e-14
5312.28 3.6806e-14
5314.99 3.6412e-14
5317.7 3.6175e-14
5320.4 3.5201e-14
5323.11 3.4747e-14
5325.82 3.4529e-14
5328.52 3.4444e-14
5331.23 3.4761e-14
5333.94 3.4909e-14
5336.64 3.5021e-14
5339.35 3.5025e-14
5342.06 3.5517e-14
5344.77 3.5461e-14
5347.47 3.5311e-14
5350.18 3.5402e-14
5352.89 3.5974e-14
5355.59 3.6703e-14
5358.3 3.6545e-14
5361.01 3.6296e-14
5363.71 3.5693e-14
5366.42 3.5018e-14
5369.13 3.4799e-14
5371.83 3.5155e-14
5374.54 3.4794e-14
5377.25 3.5057e-14
5379.95 3.5413e-14
5382.66 3.4719e-14
5385.37 3.5228e-14
5388.08 3.5049e-14
5390.78 3.5116e-14
5393.49 3.5053e-14
5396.2 3.4468e-14
5398.9 3.4142e-14
5401.61 3.4723e-14
5404.32 3.4382e-14
5407.02 3.4382e-14
5409.73 3.4182e-14
5412.44 3.4623e-14
5415.14 3.5388e-14
5417.85 3.4906e-14
5420.56 3.478e-14
5423.26 3.5303e-14
5425.97 3.469e-14
5428.68 3.434e-14
5431.38 3.4404e-14
5434.09 3.4272e-14
5436.8 3.4606e-14
5439.51 3.4826e-14
5442.21 3.5103e-14
5444.92 3.4915e-14
5447.63 3.4916e-14
5450.33 3.4966e-14
5453.04 3.4436e-14
5455.75 3.4681e-14
5458.45 3.4026e-14
