# col1 col2
# An Atlas of Galaxy Spectral Energy Distributions from the Ultraviolet to the Mid-Infrared
# Brown et al. (2014)
# http://dx.doi.org/10.5072/03/529D3551F0117
# 
# Column 1 : Restframe Wavelength (Angstrom)
# Column 2 : Flux per unit wavelength (ergs/s/cm^2/Angstrom)
# Column 3 : Observed wavelength (Angstrom)
# Column 4 : Source (0 = model, 1 = Optical Spectrum, 2 = Akari, 3 = Spitzer IRS)
# 
100.06 4.8778e-23
101.92 7.1817e-23
104.05 9.599e-23
105.99 1.3068e-22
107.96 1.8081e-22
109.97 2.794e-22
114.09 4.6798e-22
118.1 7.3152e-22
121.13 3.0285e-21
125.1 4.3373e-21
127.13 5.0029e-21
128.02 5.473e-21
131.0 6.6715e-21
131.91 8.1325e-21
134.05 9.1669e-21
136.86 1.2683e-20
140.04 1.5039e-20
142.98 4.6262e-20
146.98 1.325e-19
151.1 1.564e-19
154.98 1.8588e-19
158.95 2.2142e-19
161.91 2.4959e-19
166.06 2.9595e-19
169.93 3.4216e-19
173.09 3.8214e-19
177.12 4.3674e-19
180.0 4.822e-19
182.08 5.1431e-19
185.89 5.824e-19
191.1 6.7643e-19
194.21 7.434e-19
197.82 8.2647e-19
201.96 9.2518e-19
204.77 1.0005e-18
210.02 1.0845e-18
215.9 1.3099e-18
219.92 1.4462e-18
222.98 1.5284e-18
227.12 1.6835e-18
229.75 2.6682e-18
234.02 4.6156e-18
240.03 6.0565e-18
246.19 6.0985e-18
251.92 6.8901e-18
257.19 6.155e-18
260.17 7.2648e-18
263.79 7.9657e-18
268.7 8.3603e-18
273.69 8.7544e-18
278.78 9.0829e-18
283.96 9.6433e-18
289.91 9.8226e-18
295.98 1.0477e-17
300.79 1.082e-17
307.8 1.1837e-17
317.88 1.325e-17
328.29 1.4799e-17
338.27 1.6152e-17
347.75 1.7548e-17
356.67 2.1788e-17
365.82 3.0706e-17
375.2 3.4612e-17
384.82 3.398e-17
394.7 5.2267e-17
404.82 7.1982e-17
414.25 8.1889e-17
421.95 8.4377e-17
429.8 9.062e-17
440.82 1.2029e-16
451.09 1.3907e-16
459.47 1.3811e-16
470.18 1.5857e-16
480.02 1.9871e-16
490.07 1.8977e-16
500.34 2.5777e-16
506.13 2.3726e-16
511.99 3.9014e-16
520.31 4.02e-16
529.98 4.0853e-16
539.84 3.6747e-16
549.87 3.8925e-16
560.1 5.5109e-16
570.51 6.6715e-16
579.78 7.0344e-16
590.56 7.6953e-16
600.15 6.9219e-16
609.9 7.1322e-16
619.81 9.6211e-16
629.89 9.599e-16
640.12 1.1226e-15
650.52 1.1408e-15
658.05 1.092e-15
665.67 1.28e-15
674.93 1.41e-15
684.32 1.2683e-15
695.44 1.5461e-15
705.12 1.3068e-15
716.58 1.7508e-15
726.54 1.8417e-15
734.96 1.9152e-15
745.18 1.9285e-15
755.55 1.9871e-15
764.3 1.8502e-15
774.93 2.144e-15
785.71 2.0287e-15
794.81 2.2606e-15
805.86 2.3946e-15
815.2 2.473e-15
824.64 2.5955e-15
834.18 2.1195e-15
845.79 2.6867e-15
855.58 2.7116e-15
865.49 2.8855e-15
875.51 2.9732e-15
885.65 3.0565e-15
895.9 3.1349e-15
904.19 3.1421e-15
914.66 3.1421e-15
925.26 7.8745e-15
935.97 1.325e-14
944.63 1.9374e-14
955.57 2.4167e-14
964.41 2.6499e-14
975.58 8.7745e-15
984.6 2.1539e-14
996.01 2.199e-14
1005.22 2.9732e-14
1014.52 3.0285e-14
1023.91 1.8803e-14
1035.77 2.5132e-14
1045.35 3.9014e-14
1055.02 3.8126e-14
1064.78 3.1421e-14
1074.64 3.5994e-14
1084.58 3.0495e-14
1094.62 3.7951e-14
1104.74 3.6663e-14
1114.97 3.5746e-14
1125.28 3.1785e-14
1135.7 3.9375e-14
1146.2 3.6917e-14
1154.15 3.8302e-14
1164.83 3.8568e-14
1175.61 2.6377e-14
1183.76 3.7517e-14
1194.71 2.9595e-14
1205.76 2.4056e-14
1214.12 1.9241e-14
1225.36 2.9801e-14
1233.85 3.9375e-14
1245.27 4.1901e-14
1253.9 4.0572e-14
1265.5 3.7344e-14
1274.27 4.4898e-14
1286.06 4.6583e-14
1294.98 3.8568e-14
1303.95 3.8657e-14
1316.02 4.6262e-14
1325.14 4.4486e-14
1334.33 4.0665e-14
1343.58 4.6369e-14
1356.01 4.5105e-14
1365.41 4.1231e-14
1374.87 4.2386e-14
1384.4 4.2484e-14
1394.0 3.4294e-14
1403.66 3.4532e-14
1413.39 4.0015e-14
1426.47 4.0107e-14
1436.36 4.0947e-14
1442.99 4.2386e-14
1446.31 4.2877e-14
1456.34 4.1613e-14
1466.43 3.8925e-14
1476.6 3.9285e-14
1483.41 4.0015e-14
1493.7 4.0293e-14
1504.05 3.8302e-14
1510.99 3.4772e-14
1517.97 3.6663e-14
1524.97 3.5911e-14
1535.54 3.1133e-14
1546.19 3.1133e-14
1553.32 3.0355e-14
1564.09 3.2526e-14
1574.93 3.4772e-14
1585.85 3.616e-14
1593.17 3.6663e-14
1604.21 3.5994e-14
1615.33 3.5828e-14
1626.53 3.4692e-14
1634.04 3.6663e-14
1645.36 3.7087e-14
1656.77 3.5337e-14
1664.42 3.7517e-14
1672.1 3.398e-14
1675.95 3.8568e-14
1683.69 3.9285e-14
1695.36 3.7258e-14
1703.19 3.616e-14
1714.99 3.4294e-14
1726.88 3.398e-14
1734.85 3.6077e-14
1746.88 3.5418e-14
1754.94 3.7002e-14
1763.04 3.4852e-14
1775.26 3.4932e-14
1783.45 3.5664e-14
1795.82 3.7344e-14
1804.11 3.7258e-14
1816.61 3.4532e-14
1825.0 3.5255e-14
1833.42 3.4216e-14
1846.13 3.1712e-14
1854.65 3.1932e-14
1863.21 3.2751e-14
1876.13 3.4772e-14
1884.79 3.2079e-14
1893.49 3.0919e-14
1906.61 3.2751e-14
1915.41 3.1494e-14
1924.25 3.0635e-14
1933.13 3.1932e-14
1946.53 3.2978e-14
1955.52 3.0706e-14
1969.07 3.336e-14
1978.16 3.4294e-14
1982.72 3.2526e-14
1996.47 3.1712e-14
2005.68 3.2751e-14
2014.94 3.1858e-14
2024.24 3.3054e-14
2033.58 3.1277e-14
2042.97 3.2153e-14
2057.13 2.9527e-14
2066.63 3.0285e-14
2076.16 3.3054e-14
2085.75 3.2451e-14
2095.38 3.0848e-14
2105.05 3.1133e-14
2114.76 3.1494e-14
2124.52 3.1785e-14
2134.33 3.0146e-14
2144.18 3.0355e-14
2154.08 3.1421e-14
2164.02 3.0495e-14
2174.01 3.0425e-14
2184.05 2.9801e-14
2194.13 3.0919e-14
2204.26 3.0285e-14
2214.43 2.9055e-14
2224.65 2.8394e-14
2234.92 2.9595e-14
2245.24 2.8657e-14
2255.6 2.7621e-14
2266.01 2.8201e-14
2276.47 2.8595e-14
2286.98 2.8994e-14
2297.53 2.7311e-14
2302.83 2.7628e-14
2313.46 2.663e-14
2324.14 2.2254e-14
2334.87 2.5202e-14
2345.64 2.4686e-14
2356.47 2.5911e-14
2367.35 2.4406e-14
2372.8 2.4747e-14
2383.76 2.3364e-14
2394.76 2.4466e-14
2405.81 2.3692e-14
2416.92 2.4023e-14
2422.49 2.4982e-14
2433.67 2.4136e-14
2444.9 2.5101e-14
2456.19 2.4758e-14
2467.53 2.4532e-14
2473.22 2.3864e-14
2484.63 2.4087e-14
2496.1 2.1568e-14
2507.62 2.4538e-14
2513.4 2.2483e-14
2519.2 2.3166e-14
2525.0 2.2536e-14
2536.66 2.2746e-14
2542.51 2.2331e-14
2554.24 2.3385e-14
2566.03 2.2907e-14
2577.88 2.3768e-14
2583.82 2.3497e-14
2595.74 2.3176e-14
2607.73 2.2598e-14
2613.74 2.2237e-14
2625.8 2.2914e-14
2637.92 2.3342e-14
2644.0 2.4612e-14
2656.21 2.4899e-14
2662.33 2.3078e-14
2674.62 2.3781e-14
2686.96 2.3728e-14
2693.16 2.2765e-14
2705.59 2.319e-14
2718.08 2.2301e-14
2724.34 2.2251e-14
2736.92 2.2875e-14
2743.23 2.0768e-14
2755.89 2.1009e-14
2762.24 2.15e-14
2774.99 2.2205e-14
2787.8 2.1256e-14
2794.23 1.8344e-14
2807.13 1.9255e-14
2813.6 2.1805e-14
2826.58 2.2469e-14
2833.1 2.1707e-14
2846.18 2.1312e-14
2852.74 2.0637e-14
2865.91 2.2063e-14
2872.51 2.2013e-14
2885.77 2.1863e-14
2892.42 2.1714e-14
2912.47 2.2897e-14
2932.66 2.2173e-14
2952.99 2.1771e-14
2966.62 2.1923e-14
2987.18 2.1825e-14
3007.89 2.1878e-14
3028.74 2.178e-14
3049.73 2.1682e-14
3070.87 2.1635e-14
3092.16 2.1588e-14
3106.43 2.154e-14
3127.97 2.1149e-14
3149.65 2.1151e-14
3171.48 2.1057e-14
3193.46 2.0158e-14
3208.2 2.0581e-14
3230.44 1.9794e-14
3252.83 2.0634e-14
3267.85 2.1019e-14
3290.5 2.0829e-14
3313.31 2.0688e-14
3320.95 2.1025e-14
3328.6 2.1221e-14
3336.28 2.1418e-14
3343.97 2.0314e-14
3351.68 2.0884e-14
3359.4 2.0598e-14
3367.15 2.0504e-14
3374.91 1.9137e-14
3382.69 1.9583e-14
3390.49 2.084e-14
3398.3 2.0937e-14
3406.14 2.0181e-14
3413.99 2.0322e-14
3421.86 2.094e-14
3429.75 2.0559e-14
3437.65 2.0845e-14
3445.58 1.8968e-14
3453.52 2.0895e-14
3461.48 1.9412e-14
3469.46 1.9819e-14
3477.46 1.9191e-14
3485.48 1.9504e-14
3493.51 1.9505e-14
3501.56 1.9686e-14
3509.64 1.9462e-14
3517.73 1.9019e-14
3525.83 1.9419e-14
3533.96 2.0148e-14
3542.11 2.0666e-14
3550.27 2.0667e-14
3558.46 2.0104e-14
3566.66 2.0479e-14
3574.88 1.8721e-14
3583.12 1.8128e-14
3591.39 1.7675e-14
3592.51 1.8014e-14
3595.2 2.7135e-14
3597.88 1.799e-14
3600.57 1.4427e-14
3603.26 2.2967e-14
3605.95 1.756e-14
3608.64 2.3206e-14
3611.33 2.0025e-14
3614.02 1.9575e-14
3616.71 1.7193e-14
3619.4 2.0287e-14
3622.09 1.73e-14
3624.77 1.9056e-14
3627.46 1.9563e-14
3630.15 1.9912e-14
3632.84 1.7056e-14
3635.53 2.0382e-14
3638.22 1.7576e-14
3640.91 2.2291e-14
3643.6 2.2894e-14
3646.29 2.3499e-14
3648.98 2.2049e-14
3651.66 1.975e-14
3654.35 2.079e-14
3657.04 1.5477e-14
3659.73 1.3339e-14
3662.42 2.2152e-14
3665.11 2.1067e-14
3667.8 2.0341e-14
3670.49 2.0571e-14
3673.18 1.7067e-14
3675.87 1.4783e-14
3678.56 1.8188e-14
3681.24 1.3166e-14
3683.93 1.9844e-14
3686.62 2.296e-14
3689.31 1.9142e-14
3692.0 2.2432e-14
3694.69 1.7227e-14
3697.38 2.0322e-14
3700.07 2.4925e-14
3702.76 1.7781e-14
3705.45 2.0961e-14
3708.13 1.4134e-14
3710.82 1.8618e-14
3713.51 1.5368e-14
3716.2 1.9621e-14
3718.89 1.9975e-14
3721.58 2.4927e-14
3724.27 3.7524e-14
3726.96 5.5223e-14
3729.65 6.8169e-14
3732.34 6.6284e-14
3735.02 5.4218e-14
3737.71 3.3908e-14
3740.4 2.4875e-14
3743.09 1.8587e-14
3745.78 2.5785e-14
3748.47 2.3104e-14
3751.16 1.9193e-14
3753.85 2.0672e-14
3756.54 2.1045e-14
3759.23 2.4436e-14
3761.91 2.3682e-14
3764.6 2.3726e-14
3767.29 2.2366e-14
3769.98 2.2406e-14
3772.67 2.3323e-14
3775.36 2.4585e-14
3778.05 2.2882e-14
3780.74 2.5906e-14
3783.43 2.3547e-14
3786.12 2.6212e-14
3788.81 2.4966e-14
3791.49 2.3049e-14
3794.18 2.6955e-14
3796.87 2.6413e-14
3799.56 2.3076e-14
3802.25 1.9867e-14
3804.94 2.3312e-14
3807.63 2.3106e-14
3810.32 2.3679e-14
3813.01 2.8353e-14
3815.7 2.6501e-14
3818.38 2.8597e-14
3821.07 2.5764e-14
3823.76 2.853e-14
3826.45 2.6397e-14
3829.14 2.3816e-14
3831.83 1.9834e-14
3834.52 2.3696e-14
3837.21 2.1564e-14
3839.9 2.0664e-14
3842.59 2.236e-14
3845.27 2.39e-14
3847.96 2.2462e-14
3850.65 2.4383e-14
3853.34 2.5358e-14
3856.03 2.5677e-14
3858.72 2.5432e-14
3861.41 2.6115e-14
3864.1 2.6276e-14
3866.79 2.8327e-14
3869.48 2.7967e-14
3872.16 2.8562e-14
3874.85 3.1013e-14
3877.54 2.9145e-14
3880.23 2.6338e-14
3882.92 2.4411e-14
3885.61 2.6305e-14
3888.3 2.7076e-14
3890.99 2.2993e-14
3893.68 2.4263e-14
3896.37 2.4368e-14
3899.05 2.3946e-14
3901.74 2.4823e-14
3904.43 2.6581e-14
3907.12 2.4619e-14
3909.81 2.4677e-14
3912.5 2.834e-14
3915.19 2.9759e-14
3917.88 2.8422e-14
3920.57 2.5383e-14
3923.26 2.4117e-14
3925.95 2.5317e-14
3928.63 2.6786e-14
3931.32 2.6069e-14
3934.01 2.3765e-14
3936.7 2.5832e-14
3939.39 2.4995e-14
3942.08 2.6319e-14
3944.77 2.753e-14
3947.46 2.8006e-14
3950.15 3.0271e-14
3952.84 2.738e-14
3955.52 2.6374e-14
3958.21 2.7697e-14
3960.9 2.7659e-14
3963.59 2.1199e-14
3966.28 2.1595e-14
3968.97 2.144e-14
3971.66 2.032e-14
3974.35 2.2376e-14
3977.04 2.2618e-14
3979.73 1.9465e-14
3982.41 2.3012e-14
3985.1 2.8519e-14
3987.79 2.7605e-14
3990.48 3.0739e-14
3993.17 3.0256e-14
3995.86 3.1102e-14
3998.55 3.0464e-14
4001.24 2.7618e-14
4003.93 2.9565e-14
4006.62 2.737e-14
4009.31 3.236e-14
4011.99 3.0205e-14
4014.68 2.8044e-14
4017.37 3.0012e-14
4020.06 3.1634e-14
4022.75 3.0121e-14
4025.44 2.9164e-14
4028.13 3.1446e-14
4030.82 3.2373e-14
4033.51 3.0214e-14
4036.2 3.1306e-14
4038.88 3.1906e-14
4041.57 2.9966e-14
4044.26 3.04e-14
4046.95 2.563e-14
4049.64 3.0605e-14
4052.33 3.2623e-14
4055.02 2.8765e-14
4057.71 3.0304e-14
4060.4 2.9114e-14
4063.09 3.056e-14
4065.77 3.315e-14
4068.46 3.0002e-14
4071.15 2.8866e-14
4073.84 3.2681e-14
4076.53 2.9697e-14
4079.22 3.2342e-14
4081.91 2.723e-14
4084.6 2.8968e-14
4087.29 2.7111e-14
4089.98 2.9858e-14
4092.66 2.5232e-14
4095.35 2.6017e-14
4098.04 2.753e-14
4100.73 2.5224e-14
4103.42 2.6769e-14
4106.11 2.6669e-14
4108.8 2.8519e-14
4111.49 2.6427e-14
4114.18 2.7567e-14
4116.87 2.7681e-14
4119.56 2.4632e-14
4122.24 2.9035e-14
4124.93 3.1561e-14
4127.62 2.8437e-14
4130.31 2.6561e-14
4133.0 2.6771e-14
4135.69 2.7014e-14
4138.38 2.8604e-14
4141.07 2.9476e-14
4143.76 3.0909e-14
4146.45 2.8415e-14
4149.13 2.8194e-14
4151.82 3.1328e-14
4154.51 2.731e-14
4157.2 2.8551e-14
4159.89 2.8312e-14
4162.58 2.6572e-14
4165.27 2.8988e-14
4167.96 3.0957e-14
4170.65 2.9882e-14
4173.34 2.9403e-14
4176.02 2.986e-14
4178.71 2.7298e-14
4181.4 3.1032e-14
4184.09 2.8e-14
4186.78 2.7809e-14
4189.47 2.8907e-14
4192.16 2.6945e-14
4194.85 2.7042e-14
4197.54 2.8775e-14
4200.23 2.9113e-14
4202.91 2.9102e-14
4205.6 2.9772e-14
4208.29 2.9785e-14
4210.98 2.7811e-14
4213.67 3.0833e-14
4216.36 3.2467e-14
4219.05 2.9454e-14
4221.74 3.0271e-14
4224.43 3.1815e-14
4227.12 3.1481e-14
4229.81 2.9004e-14
4232.49 3.0335e-14
4235.18 2.8135e-14
4237.87 2.5371e-14
4240.56 3.0324e-14
4243.25 3.084e-14
4245.94 3.0077e-14
4248.63 2.6725e-14
4251.32 2.7764e-14
4254.01 2.9349e-14
4256.7 2.997e-14
4259.38 2.8805e-14
4262.07 2.7236e-14
4264.76 2.69e-14
4267.45 2.9175e-14
4270.14 2.9266e-14
4272.83 2.7236e-14
4275.52 2.6499e-14
4278.21 2.742e-14
4280.9 2.9014e-14
4283.59 2.8405e-14
4286.27 2.8593e-14
4288.96 2.9936e-14
4291.65 2.8414e-14
4294.34 2.7339e-14
4297.03 2.8661e-14
4299.72 2.6203e-14
4302.41 2.6193e-14
4305.1 2.8134e-14
4307.79 2.6192e-14
4310.48 2.4602e-14
4313.16 2.5458e-14
4315.85 2.6497e-14
4318.54 2.6096e-14
4321.23 2.9756e-14
4323.92 2.8765e-14
4326.61 2.5391e-14
4329.3 2.5544e-14
4331.99 2.7176e-14
4334.68 2.8432e-14
4337.37 2.8789e-14
4340.06 2.9922e-14
4342.74 3.2253e-14
4345.43 3.1473e-14
4348.12 2.7837e-14
4350.81 2.6241e-14
4353.5 2.7406e-14
4356.19 2.7776e-14
4358.88 2.711e-14
4361.57 2.6636e-14
4364.26 2.7136e-14
4366.95 2.7979e-14
4369.63 2.8552e-14
4372.32 2.9189e-14
4375.01 2.8499e-14
4377.7 2.7971e-14
4380.39 2.7939e-14
4383.08 2.5881e-14
4385.77 2.6701e-14
4388.46 2.6919e-14
4391.15 2.5411e-14
4393.84 2.7314e-14
4396.52 2.8399e-14
4399.21 2.9185e-14
4401.9 2.7914e-14
4404.59 2.5417e-14
4407.28 3.0401e-14
4409.97 2.9736e-14
4412.66 2.7542e-14
4415.35 2.7583e-14
4418.04 2.8243e-14
4420.73 2.7282e-14
4423.41 2.7557e-14
4426.1 2.8782e-14
4428.79 2.912e-14
4431.48 2.8528e-14
4434.17 2.9251e-14
4436.86 2.8906e-14
4439.55 2.8808e-14
4442.24 2.7816e-14
4444.93 2.795e-14
4447.62 2.932e-14
4450.31 2.8912e-14
4452.99 2.9223e-14
4455.68 2.907e-14
4458.37 2.8169e-14
4461.06 2.6942e-14
4463.75 2.8055e-14
4466.44 2.639e-14
4469.13 2.6598e-14
4471.82 2.7323e-14
4474.51 3.0093e-14
4477.2 3.0937e-14
4479.88 3.1077e-14
4482.57 3.1755e-14
4485.26 2.9655e-14
4487.95 2.9409e-14
4490.64 2.9453e-14
4493.33 2.8636e-14
4496.02 2.7947e-14
4498.71 2.8841e-14
4501.4 2.9067e-14
4504.09 3.1167e-14
4506.77 3.0788e-14
4509.46 2.8455e-14
4512.15 2.8388e-14
4514.84 2.8567e-14
4517.53 3.0422e-14
4520.22 2.9381e-14
4522.91 3.073e-14
4525.6 2.7298e-14
4528.29 2.583e-14
4530.98 3.0508e-14
4533.66 2.8688e-14
4536.35 2.7863e-14
4539.04 2.8406e-14
4541.73 2.9875e-14
4544.42 3.1041e-14
4547.11 3.0057e-14
4549.8 2.8161e-14
4552.49 2.8403e-14
4555.18 2.6572e-14
4557.87 2.8701e-14
4560.56 2.8967e-14
4563.24 2.9656e-14
4565.93 2.9157e-14
4568.62 2.9011e-14
4571.31 2.917e-14
4574.0 2.8005e-14
4576.69 2.4889e-14
4579.38 2.8782e-14
4582.07 2.8597e-14
4584.76 3.0318e-14
4587.45 2.8006e-14
4590.13 2.8332e-14
4592.82 2.759e-14
4595.51 2.8585e-14
4598.2 2.9568e-14
4600.89 2.8152e-14
4603.58 3.0865e-14
4606.27 3.0275e-14
4608.96 2.948e-14
4611.65 2.9018e-14
4614.34 2.9481e-14
4617.02 2.8373e-14
4619.71 3.1036e-14
4622.4 2.909e-14
4625.09 2.973e-14
4627.78 2.7424e-14
4630.47 2.8918e-14
4633.16 2.8911e-14
4635.85 2.7049e-14
4638.54 2.6586e-14
4641.23 2.7864e-14
4643.91 3.0217e-14
4646.6 2.7857e-14
4649.29 2.837e-14
4651.98 2.7784e-14
4654.67 2.8929e-14
4657.36 2.9154e-14
4660.05 3.0311e-14
4662.74 3.0208e-14
4665.43 3.1504e-14
4668.12 2.9241e-14
4670.81 2.8616e-14
4673.49 2.6048e-14
4676.18 3.0471e-14
4678.87 2.6677e-14
4681.56 2.8083e-14
4684.25 2.7923e-14
4686.94 2.803e-14
4689.63 2.8006e-14
4692.32 2.7884e-14
4695.01 2.8212e-14
4697.7 2.8566e-14
4700.38 3.0763e-14
4703.07 2.6926e-14
4705.76 2.8013e-14
4708.45 2.8045e-14
4711.14 2.7711e-14
4713.83 2.8361e-14
4716.52 2.7752e-14
4719.21 3.071e-14
4721.9 2.977e-14
4724.59 2.9757e-14
4727.27 3.1075e-14
4729.96 2.8847e-14
4732.65 2.8698e-14
4735.34 2.8952e-14
4738.03 2.6184e-14
4740.72 2.9632e-14
4743.41 3.0105e-14
4746.1 3.0636e-14
4748.79 2.9349e-14
4751.48 3.1506e-14
4754.16 3.0629e-14
4756.85 2.8409e-14
4759.54 2.781e-14
4762.23 2.8364e-14
4764.92 2.8043e-14
4767.61 3.0637e-14
4770.3 2.7039e-14
4772.99 2.7396e-14
4775.68 2.668e-14
4778.37 2.7724e-14
4781.06 3.0382e-14
4783.74 2.8591e-14
4786.43 2.5405e-14
4789.12 2.8553e-14
4791.81 2.7431e-14
4794.5 2.9597e-14
4797.19 2.5068e-14
4799.88 2.781e-14
4802.57 2.9299e-14
4805.26 2.905e-14
4807.95 2.6427e-14
4810.63 2.5542e-14
4813.32 2.8816e-14
4816.01 2.9446e-14
4818.7 2.8378e-14
4821.39 2.5906e-14
4824.08 2.7985e-14
4826.77 2.7879e-14
4829.46 2.8122e-14
4832.15 2.9549e-14
4834.84 2.8938e-14
4837.52 2.5981e-14
4840.21 2.7787e-14
4842.9 2.8465e-14
4845.59 2.6082e-14
4848.28 2.7307e-14
4850.97 2.8346e-14
4853.66 2.8818e-14
4856.35 3.2986e-14
4859.04 4.0008e-14
4861.73 4.5592e-14
4864.41 4.6485e-14
4867.1 3.8492e-14
4869.79 3.5325e-14
4872.48 2.7224e-14
4875.17 2.2309e-14
4877.86 2.4434e-14
4880.55 2.5276e-14
4883.24 2.635e-14
4885.93 2.4775e-14
4888.62 2.5138e-14
4891.3 2.5484e-14
4893.99 2.6181e-14
4896.68 2.729e-14
4899.37 2.7375e-14
4902.06 2.8199e-14
4904.75 2.5002e-14
4907.44 2.5477e-14
4910.13 2.7213e-14
4912.82 2.5052e-14
4915.51 2.7169e-14
4918.2 2.6154e-14
4920.88 2.7805e-14
4923.57 2.6649e-14
4926.26 2.5957e-14
4928.95 2.6918e-14
4931.64 2.8077e-14
4934.33 2.7318e-14
4937.02 2.5506e-14
4939.71 2.7969e-14
4942.4 2.8322e-14
4945.09 2.7066e-14
4947.77 2.7993e-14
4950.46 2.6694e-14
4953.15 2.8431e-14
4955.84 3.2874e-14
4958.53 3.3859e-14
4961.22 3.4678e-14
4963.91 3.4274e-14
4966.6 3.1264e-14
4969.29 2.7365e-14
4971.98 2.711e-14
4974.66 2.83e-14
4977.35 2.7352e-14
4980.04 2.9284e-14
4982.73 2.5737e-14
4985.42 2.661e-14
4988.11 2.7539e-14
4990.8 2.6405e-14
4993.49 2.6292e-14
4996.18 2.478e-14
4998.87 2.7841e-14
5001.55 3.1916e-14
5004.24 3.8981e-14
5006.93 4.4091e-14
5009.62 4.2956e-14
5012.31 4.2547e-14
5015.0 3.3656e-14
5017.69 2.9124e-14
5020.38 2.6657e-14
5023.07 2.4298e-14
5025.76 2.5269e-14
5028.45 2.7195e-14
5031.13 2.7e-14
5033.82 2.4762e-14
5036.51 2.7382e-14
5039.2 2.5952e-14
5041.89 2.5712e-14
5044.58 2.6515e-14
5047.27 2.6408e-14
5049.96 2.649e-14
5052.65 2.6506e-14
5055.34 2.6212e-14
5058.02 2.5449e-14
5060.71 2.8553e-14
5063.4 2.7103e-14
5066.09 2.6293e-14
5068.78 2.592e-14
5071.47 2.5985e-14
5074.16 2.6641e-14
5076.85 2.64e-14
5079.54 2.419e-14
5082.23 2.7203e-14
5084.91 2.7793e-14
5087.6 2.6026e-14
5090.29 2.6393e-14
5092.98 2.529e-14
5095.67 2.603e-14
5098.36 2.6583e-14
5101.05 2.4945e-14
5103.74 2.5353e-14
5106.43 2.6372e-14
5109.12 2.5388e-14
5111.8 2.5947e-14
5114.49 2.7344e-14
5117.18 2.944e-14
5119.87 2.708e-14
5122.56 2.6689e-14
5125.25 2.296e-14
5127.94 2.6023e-14
5130.63 2.5446e-14
5133.32 2.7181e-14
5136.01 2.5034e-14
5138.7 2.5966e-14
5141.38 2.45e-14
5144.07 2.5275e-14
5146.76 2.5834e-14
5149.45 2.618e-14
5152.14 2.622e-14
5154.83 2.5669e-14
5157.52 2.5894e-14
5160.21 2.5233e-14
5162.9 2.3811e-14
5165.59 2.4465e-14
5168.27 2.3427e-14
5170.96 2.2897e-14
5173.65 2.3899e-14
5176.34 2.1981e-14
5179.03 2.3783e-14
5181.72 2.4509e-14
5184.41 2.5357e-14
5187.1 2.359e-14
5189.79 2.5117e-14
5192.48 2.5371e-14
5195.16 2.6878e-14
5197.85 2.5973e-14
5200.54 2.8192e-14
5203.23 2.9191e-14
5205.92 2.6403e-14
5208.61 2.494e-14
5211.3 2.4884e-14
5213.99 2.6062e-14
5216.68 2.7217e-14
5219.37 2.6411e-14
5222.05 2.4627e-14
5224.74 2.6322e-14
5227.43 2.7477e-14
5230.12 2.424e-14
5232.81 2.4141e-14
5235.5 2.496e-14
5238.19 2.7062e-14
5240.88 2.759e-14
5243.57 2.6611e-14
5246.26 2.4817e-14
5248.95 2.5552e-14
5251.63 2.4848e-14
5254.32 2.4102e-14
5257.01 2.6471e-14
5259.7 2.7743e-14
5262.39 2.6441e-14
5265.08 2.5855e-14
5267.77 2.4984e-14
5270.46 2.3577e-14
5273.15 2.5967e-14
5275.84 2.6872e-14
5278.52 2.5016e-14
5281.21 2.7087e-14
5283.9 2.5454e-14
5286.59 2.5591e-14
5289.28 2.4747e-14
5291.97 2.6709e-14
5294.66 2.5466e-14
5297.35 2.5158e-14
5300.04 2.5434e-14
5302.73 2.3913e-14
5305.41 2.7044e-14
5308.1 2.5717e-14
5310.79 2.5242e-14
5313.48 2.5904e-14
5316.17 2.7649e-14
5318.86 2.6355e-14
5321.55 2.6253e-14
5324.24 2.5811e-14
5326.93 2.5156e-14
5329.62 2.6399e-14
5332.3 2.4977e-14
5334.99 2.4998e-14
5337.68 2.5206e-14
5340.37 2.7094e-14
5343.06 2.5928e-14
5345.75 2.4176e-14
5348.44 2.4509e-14
5351.13 2.727e-14
5353.82 2.5236e-14
5356.51 2.5111e-14
5359.2 2.7106e-14
5361.88 2.7405e-14
5364.57 2.7254e-14
5367.26 2.7833e-14
5369.95 2.5793e-14
5372.64 2.4678e-14
5375.33 2.4153e-14
5378.02 2.5794e-14
5380.71 2.5139e-14
5383.4 2.7482e-14
5386.09 2.7012e-14
5388.77 2.7974e-14
5391.46 2.6142e-14
5394.15 2.5987e-14
5396.84 2.6452e-14
5399.53 2.5004e-14
