# col1 col2
# An Atlas of Galaxy Spectral Energy Distributions from the Ultraviolet to the Mid-Infrared
# Brown et al. (2014)
# http://dx.doi.org/10.5072/03/529D3551F0117
# 
# Column 1 : Restframe Wavelength (Angstrom)
# Column 2 : Flux per unit wavelength (ergs/s/cm^2/Angstrom)
# Column 3 : Observed wavelength (Angstrom)
# Column 4 : Source (0 = model, 1 = Optical Spectrum, 2 = Akari, 3 = Spitzer IRS)
# 
100.01 2.9792e-20
102.11 3.6821e-20
104.0 4.16e-20
105.94 4.8876e-20
107.91 5.8223e-20
109.91 8.7316e-20
114.04 1.1537e-19
118.05 1.4391e-19
121.07 3.9636e-19
125.04 5.0245e-19
127.07 5.5988e-19
127.95 5.9305e-19
130.93 6.8564e-19
132.14 7.7285e-19
133.98 8.4546e-19
137.1 1.0378e-18
139.97 1.1915e-18
142.91 1.9235e-18
146.91 2.9587e-18
151.03 3.4841e-18
154.9 4.1029e-18
158.87 4.7984e-18
161.83 5.3839e-18
165.98 6.2531e-18
169.84 7.1795e-18
173.0 7.9633e-18
177.03 9.0802e-18
179.91 9.9792e-18
181.99 1.0644e-17
185.8 1.1998e-17
191.01 1.3839e-17
194.11 1.5069e-17
198.18 1.6792e-17
201.86 1.8668e-17
205.14 2.0142e-17
209.92 2.2136e-17
215.8 2.6127e-17
219.81 2.8648e-17
222.87 3.0415e-17
227.01 3.3197e-17
230.17 5.0477e-17
233.91 8.6118e-17
239.91 1.1197e-16
246.06 1.1484e-16
251.8 1.2592e-16
257.07 1.0992e-16
260.05 1.3095e-16
264.27 1.4064e-16
269.18 1.4591e-16
274.19 1.5069e-16
279.29 1.5527e-16
283.82 1.6073e-16
289.77 1.5962e-16
295.83 1.683e-16
301.33 1.6715e-16
308.35 1.7624e-16
317.72 1.8841e-16
328.13 1.9593e-16
338.1 2.0188e-16
348.38 2.0706e-16
357.31 2.1237e-16
365.64 2.1882e-16
375.02 2.2238e-16
384.64 2.1983e-16
395.41 2.2914e-16
404.62 2.334e-16
414.05 2.3501e-16
421.74 2.361e-16
429.59 2.361e-16
440.6 2.3938e-16
450.87 2.3994e-16
460.31 2.3938e-16
469.95 2.3994e-16
479.79 2.4104e-16
489.83 2.3938e-16
500.09 2.416e-16
505.88 2.5415e-16
511.74 3.3044e-16
520.05 3.312e-16
529.72 3.3197e-16
539.57 3.2218e-16
549.6 3.5245e-16
559.82 3.8203e-16
570.23 4.0095e-16
579.49 3.9093e-16
590.27 4.2179e-16
599.86 4.1985e-16
609.61 4.4065e-16
619.51 4.9101e-16
629.58 5.071e-16
639.81 5.1653e-16
650.2 5.4713e-16
657.73 5.5988e-16
665.35 5.8626e-16
674.6 5.9992e-16
685.57 5.9033e-16
695.1 6.8092e-16
704.77 6.5327e-16
716.22 7.5179e-16
726.19 7.7285e-16
734.6 7.945e-16
744.82 8.5328e-16
755.18 8.8939e-16
765.68 9.1853e-16
774.55 9.8196e-16
785.32 1.0401e-15
794.42 1.0767e-15
805.47 1.1145e-15
814.8 1.1458e-15
824.23 1.2249e-15
835.7 1.0992e-15
845.37 1.2885e-15
855.16 1.3307e-15
865.07 1.4064e-15
875.08 1.4828e-15
885.22 1.5743e-15
895.47 1.6447e-15
905.83 1.6715e-15
914.22 2.444e-15
924.8 1.4591e-14
935.51 3.1412e-14
944.17 6.1673e-14
955.1 8.4936e-14
963.94 1.0378e-13
975.1 2.416e-14
984.12 1.0992e-13
995.52 1.0892e-13
1004.73 1.3555e-13
1014.03 1.2109e-13
1025.77 4.8094e-14
1035.26 9.3993e-14
1044.84 1.6147e-13
1054.51 1.6184e-13
1064.26 1.3935e-13
1074.11 1.5852e-13
1084.05 1.3617e-13
1094.08 1.6259e-13
1104.2 1.5743e-13
1114.42 1.5563e-13
1124.73 1.4391e-13
1135.14 1.6561e-13
1145.64 1.5314e-13
1156.24 1.5926e-13
1164.26 1.6409e-13
1175.03 1.2738e-13
1185.9 1.5635e-13
1194.12 1.1888e-13
1205.17 9.1642e-14
1216.32 4.6569e-14
1224.75 1.0235e-13
1236.09 1.4692e-13
1244.66 1.6222e-13
1256.17 1.5999e-13
1264.88 1.4358e-13
1273.65 1.7143e-13
1285.43 1.7705e-13
1294.34 1.5492e-13
1306.32 1.5244e-13
1315.37 1.7543e-13
1324.49 1.6986e-13
1333.67 1.5852e-13
1346.01 1.7462e-13
1355.34 1.7104e-13
1364.74 1.5962e-13
1374.2 1.6372e-13
1383.72 1.6599e-13
1396.53 1.5035e-13
1406.21 1.5492e-13
1415.95 1.578e-13
1425.77 1.5816e-13
1435.65 1.5743e-13
1442.28 1.6334e-13
1445.6 1.6447e-13
1455.62 1.6147e-13
1465.71 1.5385e-13
1475.87 1.5244e-13
1486.1 1.5279e-13
1496.41 1.5385e-13
1503.31 1.4863e-13
1513.73 1.3807e-13
1517.22 1.4391e-13
1524.23 1.4096e-13
1534.79 1.2856e-13
1545.43 1.3649e-13
1556.14 1.2975e-13
1563.32 1.3095e-13
1574.16 1.3743e-13
1585.07 1.4096e-13
1596.06 1.4391e-13
1603.43 1.3903e-13
1614.54 1.3871e-13
1625.73 1.3369e-13
1633.24 1.3871e-13
1644.56 1.3935e-13
1655.96 1.3095e-13
1663.6 1.4064e-13
1671.28 1.2975e-13
1675.13 1.4031e-13
1686.74 1.4358e-13
1694.53 1.3712e-13
1706.28 1.3307e-13
1714.15 1.2945e-13
1726.03 1.2826e-13
1734.0 1.34e-13
1746.02 1.3065e-13
1754.08 1.3649e-13
1766.24 1.2679e-13
1774.39 1.3095e-13
1786.69 1.3155e-13
1794.94 1.368e-13
1803.22 1.3555e-13
1815.72 1.2975e-13
1824.1 1.3034e-13
1836.75 1.2679e-13
1845.22 1.186e-13
1853.74 1.1942e-13
1866.59 1.2193e-13
1875.21 1.2738e-13
1883.86 1.2025e-13
1896.92 1.1644e-13
1905.68 1.2081e-13
1914.47 1.1806e-13
1923.31 1.159e-13
1936.64 1.1671e-13
1945.58 1.2249e-13
1954.56 1.1671e-13
1968.11 1.2362e-13
1977.19 1.2534e-13
1981.75 1.2025e-13
1995.49 1.1752e-13
2004.7 1.186e-13
2013.95 1.1671e-13
2023.25 1.1888e-13
2037.27 1.1617e-13
2046.68 1.186e-13
2056.12 1.1405e-13
2065.61 1.1484e-13
2075.15 1.2053e-13
2079.93 1.1833e-13
2084.73 1.2053e-13
2094.35 1.1537e-13
2104.02 1.1617e-13
2113.73 1.1671e-13
2123.48 1.1752e-13
2133.29 1.112e-13
2143.13 1.1405e-13
2153.03 1.159e-13
2162.96 1.1248e-13
2172.95 1.1145e-13
2182.98 1.1171e-13
2193.05 1.1537e-13
2203.18 1.1248e-13
2213.34 1.0767e-13
2223.56 1.0595e-13
2233.82 1.1223e-13
2244.14 1.0817e-13
2254.49 1.0425e-13
2264.9 1.0474e-13
2275.35 1.0718e-13
2285.86 1.0967e-13
2296.41 1.0448e-13
2307.01 1.0556e-13
2317.66 1.0256e-13
2323.0 8.785e-14
2333.72 9.6655e-14
2344.49 9.177e-14
2355.31 9.9352e-14
2366.19 9.1548e-14
2377.11 9.4649e-14
2382.59 8.7067e-14
2393.59 9.1478e-14
2404.63 8.9079e-14
2415.73 9.0206e-14
2426.88 9.5872e-14
2432.48 9.2772e-14
2443.71 9.6798e-14
2454.99 9.5789e-14
2466.32 9.4354e-14
2477.7 9.1033e-14
2483.41 9.0974e-14
2494.88 8.7368e-14
2506.39 9.5893e-14
2512.17 8.6e-14
2517.96 8.5746e-14
2523.77 8.3163e-14
2535.42 8.4791e-14
2547.12 8.4483e-14
2552.99 9.0674e-14
2564.77 8.7679e-14
2576.61 9.1898e-14
2582.55 9.0785e-14
2594.47 8.9211e-14
2606.45 8.6064e-14
2612.46 8.4435e-14
2624.52 8.8495e-14
2636.63 9.275e-14
2642.71 1.0116e-13
2654.91 1.0505e-13
2667.16 9.5231e-14
2673.31 9.8735e-14
2685.65 1.002e-13
2698.04 9.3374e-14
2704.26 9.6808e-14
2716.75 9.0216e-14
2723.01 8.8708e-14
2735.58 9.2967e-14
2741.88 8.0911e-14
2754.54 8.4017e-14
2767.25 8.8251e-14
2773.63 9.1495e-14
2786.44 8.409e-14
2792.86 6.7362e-14
2805.75 7.1575e-14
2812.22 8.9419e-14
2825.2 9.5009e-14
2838.24 9.2065e-14
2844.78 8.7652e-14
2857.91 8.1299e-14
2864.5 9.2629e-14
2877.72 9.5294e-14
2884.36 9.3913e-14
2897.67 9.5069e-14
2911.05 1.0408e-13
2931.22 9.9152e-14
2951.54 9.6883e-14
2972.0 9.799e-14
2992.6 9.7974e-14
3013.35 9.8407e-14
3027.26 9.9151e-14
3048.24 9.9815e-14
3069.37 1.0025e-13
3090.64 9.9991e-14
3112.07 1.0135e-13
3126.43 9.887e-14
3148.1 9.8381e-14
3169.93 1.0017e-13
3191.9 9.4749e-14
3206.63 9.8126e-14
3228.86 9.281e-14
3251.24 1.0148e-13
3266.25 1.068e-13
3288.89 1.0552e-13
3311.68 1.0378e-13
3319.32 1.0086e-13
3326.97 1.0216e-13
3334.64 1.0737e-13
3342.33 1.0033e-13
3350.03 1.0448e-13
3357.76 1.0342e-13
3365.5 9.0196e-14
3373.25 8.99e-14
3381.03 9.8251e-14
3388.82 1.0278e-13
3396.64 9.6712e-14
3404.47 1.0472e-13
3412.31 9.7638e-14
3420.18 1.0167e-13
3428.07 1.0298e-13
3435.97 1.0311e-13
3443.89 9.3085e-14
3451.83 1.0482e-13
3459.78 1.0139e-13
3467.76 1.0036e-13
3475.75 1.0189e-13
3483.77 1.0155e-13
3491.8 1.0333e-13
3499.85 9.3924e-14
3507.92 1.0359e-13
3516.0 9.6356e-14
3524.11 9.8498e-14
3532.23 1.0303e-13
3540.37 1.0556e-13
3548.54 1.0966e-13
3556.72 1.0486e-13
3564.91 1.062e-13
3573.13 9.1135e-14
3581.37 9.489e-14
3589.62 8.3321e-14
3597.9 9.8921e-14
3606.19 9.7459e-14
3614.51 9.6461e-14
3619.71 7.3479e-14
3622.45 7.2499e-14
3625.19 9.3162e-14
3627.94 1.0956e-13
3630.68 8.9835e-14
3633.43 7.4162e-14
3636.17 9.0095e-14
3638.91 8.8107e-14
3641.66 1.0288e-13
3644.4 9.5924e-14
3647.15 1.0916e-13
3649.89 1.0009e-13
3652.63 9.4766e-14
3655.38 1.0735e-13
3658.12 1.3659e-13
3660.87 1.1036e-13
3663.61 9.7433e-14
3666.35 1.3216e-13
3669.1 1.1304e-13
3671.84 9.4667e-14
3674.59 9.7092e-14
3677.33 1.1949e-13
3680.07 1.1564e-13
3682.82 1.2106e-13
3685.56 1.1216e-13
3688.31 9.661e-14
3691.05 1.1628e-13
3693.79 1.305e-13
3696.54 1.1556e-13
3699.28 1.0291e-13
3702.03 1.1866e-13
3704.77 1.1587e-13
3707.51 1.1943e-13
3710.26 1.083e-13
3713.0 9.365e-14
3715.74 1.1117e-13
3718.49 1.2763e-13
3721.23 1.2237e-13
3723.98 1.2907e-13
3726.72 1.1402e-13
3729.46 1.1932e-13
3732.21 9.5308e-14
3734.95 1.0808e-13
3737.7 7.8548e-14
3740.44 1.0898e-13
3743.18 1.1025e-13
3745.93 1.075e-13
3748.67 1.1714e-13
3751.42 1.1646e-13
3754.16 1.1795e-13
3756.9 1.0373e-13
3759.65 1.2934e-13
3762.39 1.2208e-13
3765.14 1.282e-13
3767.88 1.1614e-13
3770.62 1.2851e-13
3773.37 1.3297e-13
3776.11 1.3057e-13
3778.86 1.4573e-13
3781.6 1.42e-13
3784.34 1.3912e-13
3787.09 1.5247e-13
3789.83 1.4573e-13
3792.58 1.3215e-13
3795.32 1.2896e-13
3798.06 1.1881e-13
3800.81 1.2142e-13
3803.55 1.3295e-13
3806.3 1.3206e-13
3809.04 1.4267e-13
3811.78 1.4622e-13
3814.53 1.4877e-13
3817.27 1.5225e-13
3820.02 1.4655e-13
3822.76 1.325e-13
3825.5 1.3259e-13
3828.25 1.1964e-13
3830.99 1.2186e-13
3833.74 1.0937e-13
3836.48 1.1604e-13
3839.22 1.1006e-13
3841.97 1.2313e-13
3844.71 1.4192e-13
3847.46 1.3934e-13
3850.2 1.4055e-13
3852.94 1.4497e-13
3855.69 1.4944e-13
3858.43 1.4889e-13
3861.18 1.5383e-13
3863.92 1.5457e-13
3866.66 1.6326e-13
3869.41 1.6141e-13
3872.15 1.52e-13
3874.9 1.479e-13
3877.64 1.4907e-13
3880.38 1.4568e-13
3883.13 1.4206e-13
3885.87 1.2932e-13
3888.62 1.1941e-13
3891.36 1.256e-13
3894.1 1.381e-13
3896.85 1.4429e-13
3899.59 1.4605e-13
3902.34 1.5157e-13
3905.08 1.5366e-13
3907.82 1.5312e-13
3910.57 1.6028e-13
3913.31 1.6019e-13
3916.06 1.5987e-13
3918.8 1.6122e-13
3921.54 1.6054e-13
3924.29 1.49e-13
3927.03 1.3395e-13
3929.78 1.1923e-13
3932.52 1.09e-13
3935.26 1.0714e-13
3938.01 1.1197e-13
3940.75 1.2519e-13
3943.5 1.3398e-13
3946.24 1.4529e-13
3948.98 1.5307e-13
3951.73 1.4815e-13
3954.47 1.5023e-13
3957.22 1.5057e-13
3959.96 1.3832e-13
3962.7 1.2926e-13
3965.45 1.1331e-13
3968.19 1.0185e-13
3970.94 9.6852e-14
3973.68 1.0067e-13
3976.42 1.1445e-13
3979.17 1.3378e-13
3981.91 1.5026e-13
3984.66 1.6794e-13
3987.4 1.7701e-13
3990.14 1.8168e-13
3992.89 1.7881e-13
3995.63 1.8019e-13
3998.38 1.79e-13
4001.12 1.8846e-13
4003.86 1.8519e-13
4006.61 1.8835e-13
4009.35 1.8738e-13
4012.1 1.9432e-13
4014.84 1.9592e-13
4017.58 1.9485e-13
4020.33 1.9805e-13
4023.07 1.9688e-13
4025.82 1.9261e-13
4028.56 1.9596e-13
4031.3 1.9677e-13
4034.05 1.9361e-13
4036.79 1.9122e-13
4039.54 1.9933e-13
4042.28 1.9462e-13
4045.02 1.9274e-13
4047.77 1.9268e-13
4050.51 1.9631e-13
4053.26 1.9936e-13
4056.0 1.8611e-13
4058.74 1.8684e-13
4061.49 1.9093e-13
4064.23 1.9233e-13
4066.98 1.9367e-13
4069.72 1.9057e-13
4072.46 1.961e-13
4075.21 1.9784e-13
4077.95 1.8564e-13
4080.7 1.8328e-13
4083.44 1.8431e-13
4086.18 1.9655e-13
4088.93 2.0183e-13
4091.67 1.9584e-13
4094.42 1.8889e-13
4097.16 1.7856e-13
4099.9 1.6795e-13
4102.65 1.5989e-13
4105.39 1.5062e-13
4108.14 1.6527e-13
4110.88 1.793e-13
4113.62 1.7971e-13
4116.37 1.8142e-13
4119.11 1.8872e-13
4121.86 1.8962e-13
4124.6 1.9287e-13
4127.34 1.9275e-13
4130.09 1.9089e-13
4132.83 1.8317e-13
4135.57 1.8652e-13
4138.32 1.9178e-13
4141.06 1.9234e-13
4143.81 1.9044e-13
4146.55 1.9301e-13
4149.29 1.8092e-13
4152.04 1.9292e-13
4154.78 1.9733e-13
4157.53 1.938e-13
4160.27 1.9325e-13
4163.01 2.0523e-13
4165.76 1.9949e-13
4168.5 2.0201e-13
4171.25 1.9337e-13
4173.99 1.7941e-13
4176.73 1.8083e-13
4179.48 1.8264e-13
4182.22 1.8361e-13
4184.97 1.8292e-13
4187.71 2.0034e-13
4190.45 1.9482e-13
4193.2 1.9406e-13
4195.94 1.9227e-13
4198.69 1.8809e-13
4201.43 1.8635e-13
4204.17 1.9079e-13
4206.92 1.8821e-13
4209.66 1.9504e-13
4212.41 1.9914e-13
4215.15 1.9918e-13
4217.89 1.9973e-13
4220.64 1.9383e-13
4223.38 1.9831e-13
4226.13 1.9304e-13
4228.87 1.8289e-13
4231.61 1.8562e-13
4234.36 1.8727e-13
4237.1 1.928e-13
4239.85 1.8924e-13
4242.59 2.0106e-13
4245.33 2.0373e-13
4248.08 2.0328e-13
4250.82 1.983e-13
4253.57 1.9058e-13
4256.31 1.9383e-13
4259.05 1.9658e-13
4261.8 1.8966e-13
4264.54 2.0025e-13
4267.29 1.9941e-13
4270.03 1.9057e-13
4272.77 1.8876e-13
4275.52 1.9096e-13
4278.26 1.946e-13
4281.01 1.9023e-13
4283.75 1.9315e-13
4286.49 1.9602e-13
4289.24 1.832e-13
4291.98 1.7955e-13
4294.73 1.8046e-13
4297.47 1.8251e-13
4300.21 1.7167e-13
4302.96 1.6684e-13
4305.7 1.6175e-13
4308.45 1.6443e-13
4311.19 1.6886e-13
4313.93 1.818e-13
4316.68 1.8897e-13
4319.42 2.0246e-13
4322.17 2.0372e-13
4324.91 1.9294e-13
4327.65 1.8615e-13
4330.4 1.8691e-13
4333.14 1.9389e-13
4335.89 1.8792e-13
4338.63 1.8062e-13
4341.37 1.7363e-13
4344.12 1.7324e-13
4346.86 1.7891e-13
4349.61 1.849e-13
4352.35 1.8973e-13
4355.09 1.8894e-13
4357.84 1.9054e-13
4360.58 1.9678e-13
4363.33 2.0713e-13
4366.07 2.1332e-13
4368.81 2.1233e-13
4371.56 2.0567e-13
4374.3 1.981e-13
4377.05 1.9811e-13
4379.79 1.9837e-13
4382.53 1.9474e-13
4385.28 1.8819e-13
4388.02 1.8814e-13
4390.77 1.9305e-13
4393.51 1.9681e-13
4396.25 2.026e-13
4399.0 1.9818e-13
4401.74 1.981e-13
4404.49 1.9354e-13
4407.23 2.0085e-13
4409.97 2.0173e-13
4412.72 2.01e-13
4415.46 2.0488e-13
4418.21 2.0272e-13
4420.95 2.094e-13
4423.69 2.1343e-13
4426.44 2.0758e-13
4429.18 2.0997e-13
4431.93 2.131e-13
4434.67 2.0609e-13
4437.41 2.0474e-13
4440.16 2.0885e-13
4442.9 2.1122e-13
4445.65 2.1678e-13
4448.39 2.1784e-13
4451.13 2.2004e-13
4453.88 2.1712e-13
4456.62 2.06e-13
4459.37 2.0621e-13
4462.11 2.0668e-13
4464.85 2.0951e-13
4467.6 2.1111e-13
4470.34 2.0652e-13
4473.09 2.1198e-13
4475.83 2.2163e-13
4478.57 2.2369e-13
4481.32 2.2472e-13
4484.06 2.206e-13
4486.81 2.2125e-13
4489.55 2.2178e-13
4492.29 2.1851e-13
4495.04 2.1559e-13
4497.78 2.1749e-13
4500.52 2.1747e-13
4503.27 2.2675e-13
4506.01 2.2932e-13
4508.76 2.327e-13
4511.5 2.3395e-13
4514.24 2.2725e-13
4516.99 2.2722e-13
4519.73 2.2913e-13
4522.48 2.2328e-13
4525.22 2.1974e-13
4527.96 2.1471e-13
4530.71 2.0794e-13
4533.45 2.0741e-13
4536.2 2.0441e-13
4538.94 2.1227e-13
4541.68 2.1784e-13
4544.43 2.1578e-13
4547.17 2.1628e-13
4549.92 2.1992e-13
4552.66 2.1533e-13
4555.4 2.1178e-13
4558.15 2.1693e-13
4560.89 2.2038e-13
4563.64 2.2541e-13
4566.38 2.2737e-13
4569.12 2.2927e-13
4571.87 2.2385e-13
4574.61 2.1075e-13
4577.36 2.1246e-13
4580.1 2.1585e-13
4582.84 2.1396e-13
4585.59 2.2032e-13
4588.33 2.2511e-13
4591.08 2.2298e-13
4593.82 2.2117e-13
4596.56 2.2278e-13
4599.31 2.2407e-13
4602.05 2.2048e-13
4604.8 2.2592e-13
4607.54 2.2589e-13
4610.28 2.2857e-13
4613.03 2.3469e-13
4615.77 2.2782e-13
4618.52 2.3158e-13
4621.26 2.3129e-13
4624.0 2.2579e-13
4626.75 2.3214e-13
4629.49 2.3044e-13
4632.24 2.2789e-13
4634.98 2.2573e-13
4637.72 2.2459e-13
4640.47 2.228e-13
4643.21 2.2234e-13
4645.96 2.2208e-13
4648.7 2.2137e-13
4651.44 2.2527e-13
4654.19 2.2493e-13
4656.93 2.2239e-13
4659.68 2.2649e-13
4662.42 2.2366e-13
4665.16 2.2198e-13
4667.91 2.1196e-13
4670.65 2.0688e-13
4673.4 2.138e-13
4676.14 2.1917e-13
4678.88 2.2429e-13
4681.63 2.2736e-13
4684.37 2.242e-13
4687.12 2.2653e-13
4689.86 2.2616e-13
4692.6 2.2577e-13
4695.35 2.2629e-13
4698.09 2.2537e-13
4700.84 2.192e-13
4703.58 2.1998e-13
4706.32 2.2175e-13
4709.07 2.2389e-13
4711.81 2.2627e-13
4714.56 2.2866e-13
4717.3 2.3232e-13
4720.04 2.2862e-13
4722.79 2.3318e-13
4725.53 2.324e-13
4728.28 2.2587e-13
4731.02 2.2326e-13
4733.76 2.1881e-13
4736.51 2.2445e-13
4739.25 2.2421e-13
4742.0 2.2907e-13
4744.74 2.3074e-13
4747.48 2.2731e-13
4750.23 2.2851e-13
4752.97 2.3054e-13
4755.72 2.241e-13
4758.46 2.2788e-13
4761.2 2.2681e-13
4763.95 2.2605e-13
4766.69 2.2252e-13
4769.44 2.2504e-13
4772.18 2.2785e-13
4774.92 2.2753e-13
4777.67 2.3199e-13
4780.41 2.2719e-13
4783.16 2.2609e-13
4785.9 2.2721e-13
4788.64 2.2663e-13
4791.39 2.265e-13
4794.13 2.3122e-13
4796.88 2.3144e-13
4799.62 2.3293e-13
4802.36 2.3051e-13
4805.11 2.3004e-13
4807.85 2.3022e-13
4810.6 2.2658e-13
4813.34 2.3498e-13
4816.08 2.3877e-13
4818.83 2.3151e-13
4821.57 2.297e-13
4824.32 2.3755e-13
4827.06 2.3571e-13
4829.8 2.3066e-13
4832.55 2.2609e-13
4835.29 2.2736e-13
4838.04 2.2569e-13
4840.78 2.2428e-13
4843.52 2.1818e-13
4846.27 2.2787e-13
4849.01 2.1964e-13
4851.76 2.1015e-13
4854.5 2.0828e-13
4857.24 2.0013e-13
4859.99 2.0464e-13
4862.73 2.0629e-13
4865.48 2.0886e-13
4868.22 2.0006e-13
4870.96 1.9341e-13
4873.71 1.9167e-13
4876.45 1.9959e-13
4879.19 2.0005e-13
4881.94 2.0949e-13
4884.68 2.1108e-13
4887.43 2.1438e-13
4890.17 2.0916e-13
4892.91 2.0666e-13
4895.66 2.1607e-13
4898.4 2.1711e-13
4901.15 2.1849e-13
4903.89 2.1937e-13
4906.63 2.1433e-13
4909.38 2.1494e-13
4912.12 2.1508e-13
4914.87 2.1219e-13
4917.61 2.1068e-13
4920.35 2.0723e-13
4923.1 2.0061e-13
4925.84 2.0537e-13
4928.59 2.1312e-13
4931.33 2.231e-13
4934.07 2.1742e-13
4936.82 2.2335e-13
4939.56 2.1994e-13
4942.31 2.1726e-13
4945.05 2.1855e-13
4947.79 2.2232e-13
4950.54 2.2412e-13
4953.28 2.2738e-13
4956.03 2.2011e-13
4958.77 2.1861e-13
4961.51 2.1797e-13
4964.26 2.2209e-13
4967.0 2.1822e-13
4969.75 2.2038e-13
4972.49 2.1946e-13
4975.23 2.2949e-13
4977.98 2.2713e-13
4980.72 2.1754e-13
4983.47 2.1334e-13
4986.21 2.0875e-13
4988.95 2.116e-13
4991.7 2.206e-13
4994.44 2.1572e-13
4997.19 2.1754e-13
4999.93 2.1532e-13
5002.67 2.1278e-13
5005.42 2.114e-13
5008.16 2.0423e-13
5010.91 2.0082e-13
5013.65 1.9982e-13
5016.39 2.0276e-13
5019.14 2.008e-13
5021.88 2.0433e-13
5024.63 2.105e-13
5027.37 2.0954e-13
5030.11 2.1621e-13
5032.86 2.1647e-13
5035.6 2.1281e-13
5038.35 2.1419e-13
5041.09 2.0698e-13
5043.83 2.1167e-13
5046.58 2.1497e-13
5049.32 2.1885e-13
5052.07 2.1431e-13
5054.81 2.0826e-13
5057.55 2.1921e-13
5060.3 2.2004e-13
5063.04 2.2659e-13
5065.79 2.2717e-13
5068.53 2.1943e-13
5071.27 2.1322e-13
5074.02 2.1388e-13
5076.76 2.1236e-13
5079.51 2.0992e-13
5082.25 2.1554e-13
5084.99 2.1345e-13
5087.74 2.0885e-13
5090.48 2.2131e-13
5093.23 2.2131e-13
5095.97 2.1857e-13
5098.71 2.194e-13
5101.46 2.0593e-13
5104.2 2.1082e-13
5106.95 2.0889e-13
5109.69 2.0941e-13
5112.43 2.1329e-13
5115.18 2.1253e-13
5117.92 2.232e-13
5120.67 2.2185e-13
5123.41 2.2216e-13
5126.15 2.1483e-13
5128.9 2.0429e-13
5131.64 2.0986e-13
5134.39 2.1495e-13
5137.13 2.1209e-13
5139.87 2.112e-13
5142.62 2.105e-13
5145.36 2.0288e-13
5148.11 2.1113e-13
5150.85 2.0968e-13
5153.59 2.0787e-13
5156.34 2.1128e-13
5159.08 2.1282e-13
5161.83 2.088e-13
5164.57 2.0652e-13
5167.31 1.9834e-13
5170.06 1.8452e-13
5172.8 1.8402e-13
5175.55 1.8409e-13
5178.29 1.9885e-13
5181.03 1.9822e-13
5183.78 1.8945e-13
5186.52 1.8975e-13
5189.27 1.9367e-13
5192.01 1.9732e-13
5194.75 1.9872e-13
5197.5 2.0843e-13
5200.24 2.07e-13
5202.99 2.0851e-13
5205.73 2.0513e-13
5208.47 2.0017e-13
5211.22 2.0586e-13
5213.96 2.1536e-13
5216.71 2.1509e-13
5219.45 2.139e-13
5222.19 2.1308e-13
5224.94 2.0553e-13
5227.68 2.0437e-13
5230.43 2.0442e-13
5233.17 2.0104e-13
5235.91 2.115e-13
5238.66 2.1127e-13
5241.4 2.1607e-13
5244.14 2.1936e-13
5246.89 2.1471e-13
5249.63 2.1182e-13
5252.38 2.0841e-13
5255.12 2.1293e-13
5257.86 2.149e-13
5260.61 2.0868e-13
5263.35 2.1028e-13
5266.1 1.9738e-13
5268.84 1.8989e-13
5271.58 1.9513e-13
5274.33 2.0015e-13
5277.07 2.0664e-13
5279.82 2.0885e-13
5282.56 2.1246e-13
5285.3 2.194e-13
5288.05 2.2392e-13
5290.79 2.2588e-13
5293.54 2.2554e-13
5296.28 2.2889e-13
5299.02 2.1411e-13
5301.77 2.1806e-13
5304.51 2.171e-13
5307.26 2.2382e-13
5310.0 2.2773e-13
5312.74 2.2832e-13
5315.49 2.2537e-13
5318.23 2.2473e-13
5320.98 2.2223e-13
5323.72 2.1958e-13
5326.46 2.1747e-13
5329.21 2.0649e-13
5331.95 2.1046e-13
5334.7 2.1105e-13
5337.44 2.1611e-13
5340.18 2.2088e-13
5342.93 2.2036e-13
5345.67 2.174e-13
5348.42 2.1763e-13
5351.16 2.2505e-13
5353.9 2.2116e-13
5356.65 2.2976e-13
5359.39 2.3285e-13
5362.14 2.2973e-13
5364.88 2.298e-13
5367.62 2.2213e-13
5370.37 2.1712e-13
5373.11 2.1487e-13
5375.86 2.1954e-13
5378.6 2.2721e-13
5381.34 2.1829e-13
5384.09 2.1697e-13
5386.83 2.2098e-13
5389.58 2.193e-13
5392.32 2.2408e-13
5395.06 2.187e-13
5397.81 2.1608e-13
5400.55 2.1484e-13
5403.3 2.1691e-13
5406.04 2.1149e-13
5408.78 2.1002e-13
5411.53 2.1294e-13
5414.27 2.1462e-13
5417.02 2.1936e-13
5419.76 2.2449e-13
5422.5 2.2019e-13
5425.25 2.1705e-13
5427.99 2.1575e-13
5430.74 2.1401e-13
5433.48 2.1497e-13
5436.22 2.1833e-13
5438.97 2.1657e-13
5441.71 2.2066e-13
5444.46 2.1903e-13
5447.2 2.194e-13
5449.94 2.1975e-13
