# col1 col2
# An Atlas of Galaxy Spectral Energy Distributions from the Ultraviolet to the Mid-Infrared
# Brown et al. (2014)
# http://dx.doi.org/10.5072/03/529D3551F0117
# 
# Column 1 : Restframe Wavelength (Angstrom)
# Column 2 : Flux per unit wavelength (ergs/s/cm^2/Angstrom)
# Column 3 : Observed wavelength (Angstrom)
# Column 4 : Source (0 = model, 1 = Optical Spectrum, 2 = Akari, 3 = Spitzer IRS)
# 
102.0 3.0601e-23
103.9 3.7217e-23
106.08 4.6961e-23
108.05 5.9394e-23
110.06 9.435e-23
113.93 1.4052e-22
117.93 1.9712e-22
120.95 5.633e-22
124.92 7.9021e-22
126.95 9.2628e-22
128.12 1.0063e-21
131.1 1.2553e-21
132.01 1.4413e-21
133.85 1.6586e-21
136.97 2.1614e-21
140.16 2.6469e-21
143.09 4.4951e-21
147.1 7.3577e-21
150.88 9.3485e-21
155.1 1.1851e-20
159.08 1.4919e-20
162.04 1.765e-20
165.81 2.1865e-20
170.07 2.6714e-20
172.83 3.1027e-20
176.86 3.7475e-20
180.14 4.2928e-20
181.81 4.707e-20
186.05 5.6071e-20
190.82 6.8824e-20
193.92 7.7757e-20
197.98 9.0937e-20
202.12 1.0586e-19
204.94 1.1796e-19
210.19 1.3701e-19
216.08 1.7208e-19
220.1 1.9622e-19
223.16 2.1466e-19
226.79 2.4364e-19
229.94 3.8792e-19
234.22 6.5425e-19
240.23 9.0311e-19
245.82 9.7441e-19
252.13 1.1214e-18
256.81 1.0133e-18
259.79 1.2381e-18
264.01 1.3732e-18
268.92 1.4748e-18
273.92 1.5803e-18
279.01 1.6817e-18
284.2 1.7978e-18
290.15 1.861e-18
296.22 2.0311e-18
301.04 2.0547e-18
308.05 2.2633e-18
318.14 2.563e-18
327.81 2.8102e-18
337.77 3.0391e-18
348.03 3.2639e-18
356.96 3.4974e-18
366.12 3.7561e-18
374.64 3.9696e-18
385.14 4.0902e-18
395.02 4.4437e-18
405.15 4.7287e-18
413.64 4.9402e-18
422.3 5.102e-18
430.15 5.2692e-18
441.18 5.6071e-18
451.46 5.8714e-18
459.85 6.0777e-18
469.48 6.3788e-18
480.42 6.7413e-18
490.48 7.0427e-18
499.6 7.5291e-18
506.55 1.1988e-17
512.41 3.2639e-17
519.54 3.3554e-17
530.42 3.4813e-17
540.28 3.3864e-17
550.33 4.3626e-17
560.56 5.2449e-17
569.66 5.8985e-17
580.26 5.7908e-17
589.68 6.835e-17
600.65 6.9782e-17
610.41 8.1422e-17
620.32 9.5223e-17
630.4 1.0227e-16
640.65 1.0758e-16
649.56 1.196e-16
658.6 1.2582e-16
664.69 1.3638e-16
675.49 1.4446e-16
684.89 1.4446e-16
694.42 1.765e-16
705.7 1.7129e-16
715.52 2.0832e-16
725.47 2.2016e-16
735.56 2.3214e-16
745.79 2.563e-16
754.43 2.7336e-16
764.93 2.9023e-16
775.57 3.1677e-16
784.55 3.4415e-16
795.46 3.637e-16
804.67 3.8348e-16
815.87 4.034e-16
825.31 4.4029e-16
834.87 4.0155e-16
844.54 4.8166e-16
854.32 5.0669e-16
864.21 5.4543e-16
874.22 5.831e-16
884.34 6.2768e-16
894.58 6.6488e-16
904.94 6.8824e-16
915.42 9.8796e-16
926.02 5.6851e-15
934.59 1.2127e-14
945.41 2.3809e-14
954.16 3.279e-14
965.2 4.0527e-14
974.14 1.0441e-14
985.42 4.4642e-14
994.53 4.4539e-14
1006.05 5.4418e-14
1015.36 4.85e-14
1024.75 1.9622e-14
1034.23 3.9061e-14
1043.8 6.5727e-14
1055.89 6.6641e-14
1065.66 5.8714e-14
1075.52 6.6488e-14
1085.47 5.8444e-14
1095.52 6.8983e-14
1105.65 6.7103e-14
1115.88 6.6949e-14
1126.21 6.2624e-14
1134.02 7.1407e-14
1144.51 6.6795e-14
1155.1 6.9461e-14
1165.79 7.1737e-14
1173.87 5.7114e-14
1184.73 6.8983e-14
1195.69 5.4168e-14
1203.98 4.2633e-14
1215.12 2.1515e-14
1226.36 4.6638e-14
1234.86 6.603e-14
1246.29 7.2902e-14
1254.93 7.2902e-14
1263.63 6.6488e-14
1275.32 7.8296e-14
1284.16 8.1048e-14
1296.04 7.2567e-14
1305.03 7.1902e-14
1314.07 8.161e-14
1326.23 7.9752e-14
1335.42 7.5464e-14
1344.68 8.2365e-14
1354.0 8.1235e-14
1366.53 7.6867e-14
1376.0 7.8839e-14
1385.54 8.012e-14
1395.14 7.3408e-14
1404.82 7.5464e-14
1414.55 7.7757e-14
1424.36 7.7937e-14
1434.23 7.7937e-14
1440.85 8.0675e-14
1447.5 8.1235e-14
1454.18 8.0305e-14
1464.26 7.7222e-14
1474.41 7.6867e-14
1484.63 7.7222e-14
1494.92 7.7937e-14
1505.29 7.5987e-14
1512.23 7.1407e-14
1515.72 7.4258e-14
1526.23 7.2902e-14
1533.27 6.7413e-14
1543.9 7.0752e-14
1554.6 6.8036e-14
1565.38 6.8983e-14
1576.23 7.24e-14
1583.5 7.4087e-14
1594.48 7.5813e-14
1605.53 7.3408e-14
1616.66 7.3408e-14
1624.12 7.1243e-14
1635.38 7.3917e-14
1646.72 7.4258e-14
1654.32 7.059e-14
1665.79 7.5464e-14
1673.48 7.0427e-14
1677.33 7.5291e-14
1685.08 7.6867e-14
1696.76 7.4087e-14
1704.59 7.2234e-14
1716.4 7.059e-14
1724.33 7.0104e-14
1736.28 7.307e-14
1744.29 7.1572e-14
1756.38 7.4429e-14
1764.49 6.9943e-14
1776.72 7.2068e-14
1784.92 7.2567e-14
1793.16 7.4772e-14
1805.59 7.4429e-14
1813.92 7.1737e-14
1826.5 7.2068e-14
1834.93 7.0752e-14
1843.4 6.6949e-14
1856.18 6.7258e-14
1864.74 6.835e-14
1873.35 7.1079e-14
1886.34 6.7568e-14
1895.04 6.5575e-14
1903.79 6.8193e-14
1916.99 6.6641e-14
1925.84 6.5727e-14
1934.73 6.6949e-14
1943.65 6.9301e-14
1957.13 6.603e-14
1966.16 6.9301e-14
1975.24 7.059e-14
1984.35 6.8036e-14
1993.51 6.6641e-14
2002.71 6.7568e-14
2016.6 6.6641e-14
2025.91 6.8193e-14
2035.26 6.6335e-14
2044.65 6.7258e-14
2054.09 6.4379e-14
2063.57 6.5425e-14
2073.1 6.835e-14
2077.87 6.6488e-14
2082.66 6.7568e-14
2097.1 6.5274e-14
2106.78 6.603e-14
2116.5 6.6182e-14
2126.27 6.6949e-14
2136.09 6.423e-14
2145.95 6.4974e-14
2155.85 6.603e-14
2165.8 6.4527e-14
2175.8 6.423e-14
2185.84 6.3788e-14
2195.93 6.5575e-14
2206.07 6.423e-14
2216.25 6.248e-14
2226.48 6.134e-14
2236.76 6.3788e-14
2247.08 6.205e-14
2257.46 6.0777e-14
2262.66 6.1199e-14
2273.1 6.2193e-14
2283.6 6.2913e-14
2294.14 6.0645e-14
2304.73 6.0936e-14
2315.36 5.9697e-14
2326.05 5.2605e-14
2336.79 5.7958e-14
2347.57 5.613e-14
2352.99 5.8645e-14
2363.85 5.6016e-14
2374.76 5.7069e-14
2385.72 5.4385e-14
2396.73 5.6307e-14
2402.26 5.503e-14
2413.34 5.5422e-14
2424.48 5.7117e-14
2435.67 5.5572e-14
2446.92 5.714e-14
2452.56 5.6621e-14
2463.88 5.6113e-14
2475.25 5.4973e-14
2486.68 5.5877e-14
2492.41 5.3491e-14
2503.91 5.7064e-14
2515.47 5.3759e-14
2527.08 5.3032e-14
2532.91 5.3037e-14
2544.6 5.2804e-14
2556.34 5.4797e-14
2562.24 5.405e-14
2574.06 5.5704e-14
2585.94 5.546e-14
2597.88 5.4962e-14
2603.87 5.3717e-14
2615.89 5.3235e-14
2627.96 5.4361e-14
2634.02 5.4997e-14
2646.18 5.7866e-14
2652.28 5.8274e-14
2664.52 5.5663e-14
2676.82 5.6709e-14
2682.99 5.6977e-14
2695.38 5.5181e-14
2707.82 5.5832e-14
2714.06 5.4067e-14
2726.59 5.3706e-14
2732.87 5.5217e-14
2745.49 5.1188e-14
2758.16 5.1792e-14
2764.52 5.3004e-14
2777.28 5.425e-14
2783.68 5.2656e-14
2796.53 4.6084e-14
2802.98 4.8261e-14
2815.91 5.3789e-14
2822.4 5.4669e-14
2835.43 5.3559e-14
2841.97 5.2467e-14
2855.09 5.1284e-14
2868.26 5.3837e-14
2874.88 5.3967e-14
2888.15 5.3979e-14
2894.8 5.3861e-14
2908.17 5.6153e-14
2928.33 5.4768e-14
2948.62 5.4035e-14
2969.06 5.4304e-14
2989.64 5.4198e-14
3010.37 5.4467e-14
3031.23 5.4361e-14
3052.24 5.4381e-14
3073.4 5.4026e-14
3087.59 5.4039e-14
3108.99 5.3934e-14
3130.54 5.3214e-14
3152.24 5.3111e-14
3166.79 5.3247e-14
3188.74 5.1696e-14
3210.84 5.2677e-14
3233.1 5.126e-14
3248.02 5.3075e-14
3270.54 5.4083e-14
3293.21 5.3731e-14
3308.41 5.3375e-14
3323.68 5.3144e-14
3331.34 5.3273e-14
3339.02 5.0416e-14
3346.72 5.3042e-14
3354.43 5.1013e-14
3362.17 5.0204e-14
3369.92 4.9294e-14
3377.68 4.8624e-14
3385.47 5.1512e-14
3393.28 5.2719e-14
3401.1 5.383e-14
3408.94 5.0475e-14
3416.8 5.1896e-14
3424.67 5.4224e-14
3432.57 5.4734e-14
3440.48 5.3495e-14
3448.41 5.0277e-14
3456.36 4.9938e-14
3464.33 4.9487e-14
3472.32 5.2065e-14
3480.32 5.0189e-14
3488.34 5.1246e-14
3496.38 5.1253e-14
3504.44 5.1379e-14
3512.52 5.0915e-14
3520.62 5.2469e-14
3528.74 4.9769e-14
3536.87 5.2002e-14
3545.02 5.359e-14
3553.2 5.3969e-14
3561.39 5.2991e-14
3569.6 5.0149e-14
3577.83 4.9468e-14
3586.07 4.7139e-14
3594.34 4.9824e-14
3602.63 5.3028e-14
3607.45 5.9113e-14
3610.18 4.9345e-14
3612.92 4.3143e-14
3615.65 5.4306e-14
3618.39 5.5116e-14
3621.12 5.4511e-14
3623.86 5.2847e-14
3626.59 5.5555e-14
3629.33 5.1865e-14
3632.06 5.4156e-14
3634.8 5.1114e-14
3637.53 4.661e-14
3640.27 5.2185e-14
3643.0 5.5991e-14
3645.74 5.383e-14
3648.47 5.3132e-14
3651.21 5.3366e-14
3653.94 5.4637e-14
3656.68 5.377e-14
3659.41 5.918e-14
3662.15 5.2122e-14
3664.88 5.1665e-14
3667.62 5.4651e-14
3670.35 5.6399e-14
3673.09 5.5532e-14
3675.82 5.8354e-14
3678.56 5.057e-14
3681.29 4.8056e-14
3684.03 4.9821e-14
3686.76 5.3356e-14
3689.5 5.6216e-14
3692.23 5.2854e-14
3694.97 5.03e-14
3697.7 5.0878e-14
3700.44 5.538e-14
3703.17 5.6348e-14
3705.91 5.405e-14
3708.64 5.6499e-14
3711.38 5.0764e-14
3714.11 5.2027e-14
3716.85 5.4032e-14
3719.58 5.706e-14
3722.32 6.5407e-14
3725.05 9.1721e-14
3727.79 1.4936e-13
3730.52 2.3864e-13
3733.26 2.6622e-13
3735.99 2.081e-13
3738.73 1.2418e-13
3741.46 7.4657e-14
3744.2 6.4158e-14
3746.93 6.4063e-14
3749.67 5.8518e-14
3752.4 5.3179e-14
3755.14 5.3803e-14
3757.87 5.6975e-14
3760.61 6.326e-14
3763.34 6.2219e-14
3766.08 6.4991e-14
3768.81 6.5432e-14
3771.55 6.06e-14
3774.28 6.1292e-14
3777.02 6.27e-14
3779.75 6.5262e-14
3782.49 6.92e-14
3785.22 7.6736e-14
3787.96 8.064e-14
3790.69 7.5756e-14
3793.43 7.2671e-14
3796.16 6.5913e-14
3798.9 6.1029e-14
3801.63 5.6277e-14
3804.37 6.2062e-14
3807.1 6.3762e-14
3809.84 7.0108e-14
3812.57 7.5808e-14
3815.31 8.264e-14
3818.04 7.8694e-14
3820.78 8.0044e-14
3823.51 7.6477e-14
3826.25 7.0999e-14
3828.98 7.1328e-14
3831.72 6.7202e-14
3834.45 6.0982e-14
3837.19 5.9748e-14
3839.92 5.6516e-14
3842.66 5.7939e-14
3845.39 6.6053e-14
3848.13 7.5277e-14
3850.86 7.6867e-14
3853.6 7.8493e-14
3856.33 8.3071e-14
3859.07 8.1121e-14
3861.8 8.4161e-14
3864.54 8.4597e-14
3867.27 8.9579e-14
3870.01 8.9056e-14
3872.74 9.1517e-14
3875.48 9.116e-14
3878.21 8.449e-14
3880.95 8.0875e-14
3883.68 7.3683e-14
3886.42 6.9345e-14
3889.15 6.5516e-14
3891.89 7.0822e-14
3894.62 7.1355e-14
3897.36 6.8864e-14
3900.09 6.9559e-14
3902.83 7.3795e-14
3905.56 7.8013e-14
3908.3 7.9808e-14
3911.03 8.0614e-14
3913.77 8.4325e-14
3916.5 8.5134e-14
3919.24 8.5072e-14
3921.97 8.4509e-14
3924.71 8.5343e-14
3927.44 8.4133e-14
3930.18 8.0637e-14
3932.91 7.4803e-14
3935.65 6.9999e-14
3938.38 7.1366e-14
3941.12 7.6269e-14
3943.85 7.8585e-14
3946.59 7.9841e-14
3949.32 7.9426e-14
3952.06 8.2019e-14
3954.79 8.2831e-14
3957.53 8.2006e-14
3960.26 7.8082e-14
3963.0 7.4161e-14
3965.73 6.6629e-14
3968.47 6.0962e-14
3971.2 6.0023e-14
3973.94 5.9661e-14
3976.67 6.4353e-14
3979.41 6.4979e-14
3982.14 7.2682e-14
3984.88 7.7711e-14
3987.61 8.0716e-14
3990.35 8.2418e-14
3993.08 8.4073e-14
3995.82 8.7043e-14
3998.55 8.6144e-14
4001.28 8.8596e-14
4004.02 9.0558e-14
4006.75 8.9579e-14
4009.49 8.8968e-14
4012.22 8.7935e-14
4014.96 8.9358e-14
4017.69 9.2419e-14
4020.43 9.1843e-14
4023.16 8.9936e-14
4025.9 9.2145e-14
4028.63 9.2973e-14
4031.37 9.3193e-14
4034.1 9.4655e-14
4036.84 9.3241e-14
4039.57 9.1489e-14
4042.31 9.2165e-14
4045.04 9.2887e-14
4047.78 9.3026e-14
4050.51 9.153e-14
4053.25 9.5608e-14
4055.98 9.5539e-14
4058.72 9.1725e-14
4061.45 9.0698e-14
4064.19 9.0649e-14
4066.92 9.059e-14
4069.66 9.1706e-14
4072.39 9.2158e-14
4075.13 9.184e-14
4077.86 8.716e-14
4080.6 8.8092e-14
4083.33 8.621e-14
4086.07 8.5191e-14
4088.8 8.5495e-14
4091.54 8.2179e-14
4094.27 8.0114e-14
4097.01 7.7211e-14
4099.74 7.308e-14
4102.48 7.597e-14
4105.21 7.6729e-14
4107.95 7.3867e-14
4110.68 7.3549e-14
4113.42 7.3605e-14
4116.15 7.7222e-14
4118.89 8.1103e-14
4121.62 8.1933e-14
4124.36 8.1736e-14
4127.09 8.4755e-14
4129.83 8.5326e-14
4132.56 8.4773e-14
4135.3 8.6161e-14
4138.03 8.7512e-14
4140.77 8.8785e-14
4143.5 8.7262e-14
4146.24 8.6704e-14
4148.97 8.7153e-14
4151.71 8.7642e-14
4154.44 8.6963e-14
4157.18 8.5755e-14
4159.91 8.6216e-14
4162.65 8.5115e-14
4165.38 8.6475e-14
4168.12 8.6336e-14
4170.85 8.5315e-14
4173.59 8.5605e-14
4176.32 8.2254e-14
4179.06 8.493e-14
4181.79 8.2581e-14
4184.53 8.5346e-14
4187.26 8.4342e-14
4190.0 8.7609e-14
4192.73 8.7094e-14
4195.47 8.8481e-14
4198.2 8.6542e-14
4200.94 8.5509e-14
4203.67 8.4608e-14
4206.41 8.5053e-14
4209.14 8.6185e-14
4211.88 8.6731e-14
4214.61 8.746e-14
4217.35 8.8034e-14
4220.08 8.7852e-14
4222.82 8.8796e-14
4225.55 8.2566e-14
4228.29 8.442e-14
4231.02 8.4287e-14
4233.76 8.3643e-14
4236.49 8.5359e-14
4239.23 8.4553e-14
4241.96 8.513e-14
4244.7 8.4805e-14
4247.43 8.4088e-14
4250.17 8.7251e-14
4252.9 8.5367e-14
4255.64 8.3132e-14
4258.37 8.6557e-14
4261.11 8.595e-14
4263.84 8.8669e-14
4266.58 8.7282e-14
4269.31 8.7321e-14
4272.05 8.5709e-14
4274.78 8.4832e-14
4277.52 8.4859e-14
4280.25 8.649e-14
4282.99 8.5892e-14
4285.72 8.6989e-14
4288.46 8.3699e-14
4291.19 8.4074e-14
4293.93 8.4669e-14
4296.66 8.2474e-14
4299.4 8.0283e-14
4302.13 7.9718e-14
4304.87 7.6604e-14
4307.6 7.8628e-14
4310.34 7.7117e-14
4313.07 7.837e-14
4315.81 7.941e-14
4318.54 8.0389e-14
4321.28 8.1726e-14
4324.01 8.0207e-14
4326.75 7.7821e-14
4329.48 7.6917e-14
4332.22 7.3756e-14
4334.95 7.1422e-14
4337.69 7.4141e-14
4340.42 8.1895e-14
4343.16 8.972e-14
4345.89 8.6956e-14
4348.63 7.9337e-14
4351.36 7.205e-14
4354.1 7.3861e-14
4356.83 7.6046e-14
4359.57 7.7481e-14
4362.3 7.9875e-14
4365.04 8.0862e-14
4367.77 8.2761e-14
4370.51 8.1098e-14
4373.24 8.1707e-14
4375.98 8.0478e-14
4378.71 7.982e-14
4381.44 7.9865e-14
4384.18 8.0174e-14
4386.91 7.727e-14
4389.65 7.907e-14
4392.38 8.0114e-14
4395.12 7.9845e-14
4397.85 7.9354e-14
4400.59 8.0434e-14
4403.32 8.1578e-14
4406.06 8.1809e-14
4408.79 8.1846e-14
4411.53 8.2668e-14
4414.26 8.3235e-14
4417.0 8.3836e-14
4419.73 8.2538e-14
4422.47 8.1966e-14
4425.2 8.3912e-14
4427.94 8.3758e-14
4430.67 8.3379e-14
4433.41 8.4305e-14
4436.14 8.4432e-14
4438.88 8.2446e-14
4441.61 8.2123e-14
4444.35 8.2364e-14
4447.08 8.396e-14
4449.82 8.4755e-14
4452.55 8.5379e-14
4455.29 8.4008e-14
4458.02 8.1042e-14
4460.76 8.1609e-14
4463.49 8.3762e-14
4466.23 8.241e-14
4468.96 8.3018e-14
4471.7 8.4578e-14
4474.43 8.4059e-14
4477.17 8.5258e-14
4479.9 8.4307e-14
4482.64 8.2409e-14
4485.37 8.1084e-14
4488.11 8.1961e-14
4490.84 8.2796e-14
4493.58 8.3065e-14
4496.31 8.3296e-14
4499.05 8.3598e-14
4501.78 8.4066e-14
4504.52 8.4937e-14
4507.25 8.4379e-14
4509.99 8.4264e-14
4512.72 8.4575e-14
4515.46 8.4145e-14
4518.19 8.3642e-14
4520.93 8.3154e-14
4523.66 8.2836e-14
4526.4 8.0364e-14
4529.13 8.0992e-14
4531.87 7.9592e-14
4534.6 8.0386e-14
4537.34 8.1371e-14
4540.07 8.0903e-14
4542.81 8.1913e-14
4545.54 8.1606e-14
4548.28 8.0902e-14
4551.01 8.0228e-14
4553.75 8.0695e-14
4556.48 8.0727e-14
4559.22 8.2002e-14
4561.95 8.2121e-14
4564.69 8.1318e-14
4567.42 8.188e-14
4570.16 8.3003e-14
4572.89 8.2408e-14
4575.63 8.2751e-14
4578.36 8.1976e-14
4581.1 8.3567e-14
4583.83 8.3174e-14
4586.57 8.4213e-14
4589.3 8.2712e-14
4592.04 8.2467e-14
4594.77 8.3177e-14
4597.51 8.0804e-14
4600.24 8.1178e-14
4602.98 8.3446e-14
4605.71 8.218e-14
4608.45 8.3234e-14
4611.18 8.3349e-14
4613.92 8.4901e-14
4616.65 8.461e-14
4619.39 8.2455e-14
4622.12 8.4435e-14
4624.86 8.6059e-14
4627.59 8.2725e-14
4630.33 8.2533e-14
4633.06 8.3238e-14
4635.8 8.3816e-14
4638.53 8.3142e-14
4641.27 8.3393e-14
4644.0 8.2619e-14
4646.74 8.2362e-14
4649.47 8.2223e-14
4652.21 8.0459e-14
4654.94 7.9432e-14
4657.68 8.103e-14
4660.41 8.1577e-14
4663.15 8.1926e-14
4665.88 8.1226e-14
4668.62 8.1804e-14
4671.35 7.9485e-14
4674.09 8.0356e-14
4676.82 8.1148e-14
4679.56 8.0353e-14
4682.29 8.0636e-14
4685.03 8.1974e-14
4687.76 8.2885e-14
4690.5 8.28e-14
4693.23 8.2561e-14
4695.97 8.2425e-14
4698.7 8.2353e-14
4701.44 8.1563e-14
4704.17 7.8783e-14
4706.91 7.8749e-14
4709.64 7.9004e-14
4712.38 7.942e-14
4715.11 7.9361e-14
4717.85 7.7685e-14
4720.58 7.8728e-14
4723.32 8.0165e-14
4726.05 8.2637e-14
4728.79 7.9515e-14
4731.52 7.9238e-14
4734.26 7.7833e-14
4736.99 7.7512e-14
4739.73 7.7667e-14
4742.46 7.7867e-14
4745.2 8.0659e-14
4747.93 8.1243e-14
4750.67 8.1016e-14
4753.4 8.0636e-14
4756.14 7.9386e-14
4758.87 8.1716e-14
4761.61 8.0512e-14
4764.34 8.0003e-14
4767.08 7.8064e-14
4769.81 7.8861e-14
4772.55 8.1562e-14
4775.28 8.089e-14
4778.02 8.1068e-14
4780.75 8.0749e-14
4783.48 7.8934e-14
4786.22 8.0124e-14
4788.95 7.9607e-14
4791.69 7.954e-14
4794.42 8.101e-14
4797.16 8.1565e-14
4799.89 8.1283e-14
4802.63 8.1124e-14
4805.36 7.9597e-14
4808.1 7.787e-14
4810.83 7.8189e-14
4813.57 8.1599e-14
4816.3 7.9666e-14
4819.04 7.9707e-14
4821.77 7.8504e-14
4824.51 7.8536e-14
4827.24 7.7911e-14
4829.98 7.8431e-14
4832.71 7.767e-14
4835.45 7.7752e-14
4838.18 7.5225e-14
4840.92 7.4629e-14
4843.65 7.4538e-14
4846.39 7.3507e-14
4849.12 7.1984e-14
4851.86 7.0798e-14
4854.59 6.9211e-14
4857.33 7.1937e-14
4860.06 8.8466e-14
4862.8 1.188e-13
4865.53 1.3464e-13
4868.27 1.1722e-13
4871.0 8.885e-14
4873.74 6.9858e-14
4876.47 6.7884e-14
4879.21 6.7225e-14
4881.94 6.9223e-14
4884.68 6.9536e-14
4887.41 6.9189e-14
4890.15 6.9439e-14
4892.88 7.1567e-14
4895.62 7.0965e-14
4898.35 7.3317e-14
4901.09 7.3529e-14
4903.82 7.4641e-14
4906.56 7.4631e-14
4909.29 7.5841e-14
4912.03 7.3406e-14
4914.76 7.4391e-14
4917.5 7.4867e-14
4920.23 7.267e-14
4922.97 7.191e-14
4925.7 7.362e-14
4928.44 7.3097e-14
4931.17 7.4876e-14
4933.91 7.4232e-14
4936.64 7.3991e-14
4939.38 7.3519e-14
4942.11 7.2346e-14
4944.85 7.3839e-14
4947.58 7.5657e-14
4950.32 7.5705e-14
4953.05 7.7695e-14
4955.79 8.0007e-14
4958.52 9.0411e-14
4961.26 1.061e-13
4963.99 1.1093e-13
4966.73 9.8511e-14
4969.46 8.7974e-14
4972.2 7.8659e-14
4974.93 7.4998e-14
4977.67 7.4227e-14
4980.4 7.4099e-14
4983.14 7.2904e-14
4985.87 7.3418e-14
4988.61 7.2964e-14
4991.34 7.2437e-14
4994.08 7.2929e-14
4996.81 7.4168e-14
4999.55 7.4863e-14
5002.28 7.8704e-14
5005.02 9.7406e-14
5007.75 1.395e-13
5010.49 1.7404e-13
5013.22 1.6291e-13
5015.96 1.1984e-13
5018.69 8.6614e-14
5021.43 7.4203e-14
5024.16 7.0516e-14
5026.9 7.0464e-14
5029.63 7.0398e-14
5032.37 7.2174e-14
5035.1 7.1498e-14
5037.84 7.2468e-14
5040.57 7.0941e-14
5043.31 7.1179e-14
5046.04 7.0701e-14
5048.78 7.2561e-14
5051.51 7.2857e-14
5054.25 7.2136e-14
5056.98 7.1735e-14
5059.72 7.24e-14
5062.45 7.3993e-14
5065.19 7.2238e-14
5067.92 7.2841e-14
5070.66 7.136e-14
5073.39 7.111e-14
5076.13 7.154e-14
5078.86 7.1494e-14
5081.6 7.0853e-14
5084.33 6.939e-14
5087.07 7.1907e-14
5089.8 7.1729e-14
5092.54 7.2715e-14
5095.27 7.2769e-14
5098.01 7.326e-14
5100.74 7.1088e-14
5103.48 6.8984e-14
5106.21 7.0143e-14
5108.95 7.2079e-14
5111.68 7.0591e-14
5114.42 7.0814e-14
5117.15 7.1071e-14
5119.89 7.228e-14
5122.62 7.0543e-14
5125.36 7.1283e-14
5128.09 6.9934e-14
5130.83 6.8993e-14
5133.56 6.9083e-14
5136.3 7.0545e-14
5139.03 7.0199e-14
5141.77 6.9515e-14
5144.5 6.9134e-14
5147.24 6.9065e-14
5149.97 6.8687e-14
5152.71 6.9544e-14
5155.44 6.9783e-14
5158.18 7.0197e-14
5160.91 6.9272e-14
5163.65 6.9602e-14
5166.38 6.8717e-14
5169.12 6.7258e-14
5171.85 6.4686e-14
5174.59 6.3925e-14
5177.32 6.5469e-14
5180.06 6.5725e-14
5182.79 6.7407e-14
5185.52 6.673e-14
5188.26 6.4572e-14
5190.99 6.6442e-14
5193.73 6.903e-14
5196.46 6.9475e-14
5199.2 6.9754e-14
5201.93 7.036e-14
5204.67 7.1004e-14
5207.4 7.0092e-14
5210.14 6.7586e-14
5212.87 6.7277e-14
5215.61 6.7938e-14
5218.34 6.7479e-14
5221.08 6.8638e-14
5223.81 6.9882e-14
5226.55 6.9066e-14
5229.28 6.7629e-14
5232.02 6.8037e-14
5234.75 6.8e-14
5237.49 6.8939e-14
5240.22 6.839e-14
5242.96 7.0124e-14
5245.69 6.8722e-14
5248.43 6.8572e-14
5251.16 6.9494e-14
5253.9 6.9666e-14
5256.63 6.9833e-14
5259.37 6.889e-14
5262.1 6.884e-14
5264.84 6.7767e-14
5267.57 6.6071e-14
5270.31 6.5706e-14
5273.04 6.4576e-14
5275.78 6.5898e-14
5278.51 6.8059e-14
5281.25 6.7519e-14
5283.98 6.7334e-14
5286.72 6.7634e-14
5289.45 6.9861e-14
5292.19 7.044e-14
5294.92 7.0357e-14
5297.66 6.9243e-14
5300.39 6.8187e-14
5303.13 6.8926e-14
5305.86 6.9592e-14
5308.6 7.0839e-14
5311.33 6.9908e-14
5314.07 7.036e-14
5316.8 7.0236e-14
5319.54 7.0113e-14
5322.27 7.0873e-14
5325.01 6.886e-14
5327.74 6.6602e-14
5330.48 6.6272e-14
5333.21 6.5912e-14
5335.95 6.7469e-14
5338.68 6.7881e-14
5341.42 6.7704e-14
5344.15 6.7419e-14
5346.89 6.787e-14
5349.62 6.8979e-14
5352.36 6.8322e-14
5355.09 6.8342e-14
5357.83 6.8833e-14
5360.56 7.044e-14
5363.3 6.9979e-14
5366.03 6.9543e-14
5368.77 6.7293e-14
5371.5 6.7147e-14
5374.24 6.7541e-14
5376.97 6.6692e-14
5379.71 6.6939e-14
5382.44 6.8043e-14
5385.18 6.9821e-14
5387.91 6.7823e-14
5390.65 6.6854e-14
5393.38 6.7507e-14
5396.12 6.7076e-14
5398.85 6.6167e-14
5401.59 6.6917e-14
5404.32 6.6928e-14
5407.06 6.7199e-14
5409.79 6.6728e-14
5412.53 6.504e-14
5415.26 6.6167e-14
5418.0 6.6785e-14
5420.73 6.6654e-14
5423.47 6.6363e-14
5426.2 6.6098e-14
5428.94 6.5768e-14
5431.67 6.6997e-14
5434.41 6.5602e-14
5437.14 6.6488e-14
5439.88 6.6392e-14
5442.61 6.7738e-14
5445.35 6.8366e-14
