# col1 col2
# An Atlas of Galaxy Spectral Energy Distributions from the Ultraviolet to the Mid-Infrared
# Brown et al. (2014)
# http://dx.doi.org/10.5072/03/529D3551F0117
# 
# Column 1 : Restframe Wavelength (Angstrom)
# Column 2 : Flux per unit wavelength (ergs/s/cm^2/Angstrom)
# Column 3 : Observed wavelength (Angstrom)
# Column 4 : Source (0 = model, 1 = Optical Spectrum, 2 = Akari, 3 = Spitzer IRS)
# 
100.1 7.8333e-22
101.96 1.0863e-21
104.1 1.377e-21
106.03 1.7863e-21
108.0 2.3548e-21
110.01 3.5888e-21
113.88 5.5583e-21
117.88 8.0899e-21
120.9 2.9305e-20
124.86 4.0174e-20
126.89 4.5914e-20
128.07 4.9653e-20
131.05 5.9422e-20
131.96 7.0623e-20
134.1 7.8876e-20
136.91 1.0494e-19
140.1 1.2301e-19
143.03 3.1619e-19
147.04 7.6727e-19
151.16 8.9938e-19
155.04 1.0616e-18
159.02 1.2472e-18
161.97 1.3994e-18
166.13 1.6442e-18
170.0 1.8878e-18
173.16 2.0987e-18
177.19 2.3875e-18
180.07 2.6239e-18
182.15 2.7986e-18
185.97 3.1546e-18
191.18 3.6387e-18
193.84 3.9806e-18
197.9 4.4152e-18
202.04 4.9198e-18
204.85 5.3082e-18
210.11 5.7404e-18
215.99 6.8698e-18
220.01 7.55e-18
223.07 7.9606e-18
227.22 8.7286e-18
229.85 1.3676e-17
234.12 2.393e-17
240.13 3.1113e-17
245.72 3.1401e-17
252.02 3.491e-17
256.71 3.0757e-17
260.28 3.622e-17
263.9 3.9169e-17
268.81 4.0639e-17
273.8 4.1971e-17
278.89 4.3346e-17
284.08 4.4766e-17
290.03 4.4355e-17
296.1 4.6875e-17
300.91 4.7418e-17
307.92 4.9882e-17
318.01 5.345e-17
327.67 5.584e-17
337.63 5.7802e-17
347.89 5.9559e-17
356.81 6.1652e-17
365.97 6.4706e-17
375.35 6.6672e-17
384.98 6.6213e-17
394.86 7.2434e-17
404.99 7.7615e-17
414.42 8.0899e-17
422.12 8.2784e-17
429.97 8.5299e-17
441.0 9.4394e-17
451.27 1.0091e-16
459.66 1.0326e-16
470.37 1.1116e-16
480.22 1.253e-16
490.28 1.2617e-16
500.54 1.5099e-16
506.34 1.4926e-16
512.2 2.1035e-16
520.52 2.2077e-16
530.2 2.3118e-16
540.06 2.2333e-16
550.1 2.4431e-16
560.33 3.2059e-16
569.43 3.8014e-16
580.02 4.0546e-16
589.44 4.5388e-16
600.4 4.3747e-16
610.16 4.5703e-16
620.07 6.0526e-16
630.14 6.2798e-16
640.38 7.2601e-16
649.29 7.6374e-16
658.33 7.6198e-16
664.42 8.7891e-16
675.21 9.7263e-16
684.61 9.2033e-16
695.73 1.1193e-15
705.41 1.0068e-15
715.22 1.312e-15
725.17 1.4026e-15
735.26 1.4823e-15
745.49 1.538e-15
755.86 1.6179e-15
764.61 1.5594e-15
775.25 1.8069e-15
784.22 1.7822e-15
795.13 1.9813e-15
804.34 2.1181e-15
815.53 2.223e-15
824.97 2.3656e-15
834.53 2.0181e-15
844.19 2.529e-15
855.93 2.5939e-15
865.85 2.7794e-15
875.87 2.9104e-15
886.01 3.0405e-15
894.21 3.1619e-15
904.57 3.2133e-15
915.04 3.4194e-15
925.64 1.0374e-14
934.2 1.9052e-14
945.02 3.1185e-14
955.96 4.0921e-14
964.81 4.6553e-14
975.98 1.2763e-14
985.01 4.0639e-14
994.12 4.1586e-14
1005.64 5.6747e-14
1014.94 5.584e-14
1024.33 2.9441e-14
1036.19 4.405e-14
1045.78 7.3442e-14
1055.46 7.2268e-14
1065.22 5.9696e-14
1075.08 6.9174e-14
1085.03 5.7669e-14
1095.07 7.2769e-14
1105.2 7.046e-14
1115.43 6.8857e-14
1125.75 6.2222e-14
1136.16 7.6374e-14
1144.04 7.1112e-14
1154.62 7.4293e-14
1165.31 7.6023e-14
1176.09 5.3944e-14
1184.24 7.3951e-14
1195.2 5.6357e-14
1206.26 4.4766e-14
1214.62 3.2133e-14
1225.86 5.5456e-14
1234.36 7.6374e-14
1245.78 8.2404e-14
1254.41 7.9973e-14
1266.02 7.2268e-14
1274.79 8.8094e-14
1283.63 9.14e-14
1295.51 7.6198e-14
1304.49 7.5848e-14
1313.53 9.0771e-14
1325.69 8.7487e-14
1334.87 7.9973e-14
1344.13 9.14e-14
1353.44 8.9114e-14
1365.97 8.1648e-14
1375.44 8.4323e-14
1384.97 8.4907e-14
1394.57 7.1605e-14
1404.24 7.2937e-14
1413.97 8.0158e-14
1423.77 8.0899e-14
1433.64 8.1648e-14
1443.58 8.5103e-14
1446.91 8.5891e-14
1453.59 8.3742e-14
1463.66 7.8695e-14
1473.81 7.8876e-14
1484.02 8.0158e-14
1494.31 8.0899e-14
1504.67 7.7258e-14
1511.61 7.046e-14
1518.59 7.4293e-14
1525.6 7.2769e-14
1536.17 6.3965e-14
1543.26 6.5758e-14
1553.96 6.3379e-14
1564.73 6.6672e-14
1575.58 7.0949e-14
1586.5 7.3611e-14
1593.82 7.498e-14
1604.87 7.3273e-14
1616.0 7.3105e-14
1623.46 7.0623e-14
1634.71 7.4464e-14
1646.04 7.5153e-14
1653.64 7.1276e-14
1665.1 7.6198e-14
1672.79 6.9174e-14
1676.64 7.7437e-14
1684.38 7.924e-14
1696.06 7.5326e-14
1703.89 7.2937e-14
1715.7 6.9654e-14
1723.62 6.9015e-14
1735.56 7.3105e-14
1743.57 7.1605e-14
1755.66 7.5153e-14
1763.76 7.046e-14
1775.99 7.1112e-14
1784.19 7.2434e-14
1796.55 7.5674e-14
1804.85 7.55e-14
1813.18 7.046e-14
1825.75 7.177e-14
1834.17 6.9654e-14
1846.89 6.4855e-14
1855.41 6.5155e-14
1863.98 6.6826e-14
1876.9 7.0623e-14
1885.56 6.5758e-14
1894.26 6.3379e-14
1903.01 6.6826e-14
1916.2 6.4557e-14
1925.04 6.2943e-14
1933.93 6.5005e-14
1942.86 6.7444e-14
1956.32 6.3088e-14
1965.35 6.8068e-14
1974.42 6.9815e-14
1983.54 6.6519e-14
1997.29 6.4855e-14
2006.51 6.6519e-14
2015.77 6.5005e-14
2025.07 6.7289e-14
2034.42 6.3965e-14
2043.81 6.5758e-14
2053.24 6.1087e-14
2062.72 6.2509e-14
2072.24 6.7444e-14
2077.02 6.4409e-14
2086.61 6.6519e-14
2096.24 6.3379e-14
2105.91 6.3965e-14
2115.63 6.4557e-14
2125.4 6.5155e-14
2135.21 6.1936e-14
2145.06 6.2509e-14
2154.97 6.4409e-14
2164.91 6.2654e-14
2174.91 6.2366e-14
2184.94 6.1368e-14
2195.03 6.3525e-14
2205.16 6.2222e-14
2215.34 5.9696e-14
2225.57 5.8472e-14
2235.84 6.1087e-14
2246.16 5.9149e-14
2256.53 5.7141e-14
2266.94 5.804e-14
2277.41 5.8936e-14
2282.66 5.9869e-14
2293.19 5.6605e-14
2303.78 5.7082e-14
2314.41 5.5099e-14
2325.09 4.6322e-14
2335.83 5.2051e-14
2346.61 5.0824e-14
2357.44 5.3421e-14
2362.87 5.0295e-14
2373.78 5.107e-14
2384.74 4.8061e-14
2395.74 5.0283e-14
2406.8 4.8759e-14
2412.35 4.9416e-14
2423.49 5.1463e-14
2434.67 4.9787e-14
2445.91 5.1611e-14
2457.2 5.0975e-14
2462.86 5.0486e-14
2474.23 4.8953e-14
2485.65 4.9249e-14
2497.13 4.5083e-14
2502.88 5.0561e-14
2514.43 4.6071e-14
2520.23 4.7231e-14
2526.04 4.5923e-14
2537.7 4.6413e-14
2543.55 4.565e-14
2555.29 4.8088e-14
2567.09 4.695e-14
2573.0 4.869e-14
2584.88 4.8088e-14
2596.81 4.7383e-14
2602.8 4.607e-14
2614.81 4.5395e-14
2626.88 4.6838e-14
2632.94 4.8127e-14
2645.09 5.1048e-14
2657.3 5.2067e-14
2663.43 4.7902e-14
2675.72 4.9309e-14
2688.07 4.9489e-14
2694.27 4.7129e-14
2706.7 4.818e-14
2712.94 4.5989e-14
2725.46 4.5522e-14
2738.04 4.7075e-14
2744.36 4.2322e-14
2757.02 4.3066e-14
2763.38 4.4352e-14
2776.13 4.5653e-14
2782.53 4.3376e-14
2795.38 3.7051e-14
2801.82 3.8867e-14
2814.75 4.4682e-14
2827.75 4.6418e-14
2834.26 4.4818e-14
2847.35 4.3551e-14
2853.91 4.1761e-14
2867.08 4.5323e-14
2873.69 4.5718e-14
2886.96 4.525e-14
2893.61 4.5435e-14
2906.97 4.852e-14
2927.12 4.6582e-14
2947.41 4.5552e-14
2967.84 4.5898e-14
2988.41 4.5716e-14
3009.13 4.5745e-14
3029.98 4.5667e-14
3050.99 4.5589e-14
3072.13 4.5616e-14
3093.43 4.5432e-14
3107.71 4.5694e-14
3129.25 4.4678e-14
3150.94 4.4496e-14
3172.78 4.4724e-14
3187.43 4.2464e-14
3209.52 4.3574e-14
3231.77 4.1441e-14
3246.69 4.4248e-14
3269.19 4.5613e-14
3291.85 4.5109e-14
3307.05 4.4434e-14
3322.31 4.448e-14
3329.97 4.5487e-14
3337.65 4.4526e-14
3345.34 4.3887e-14
3353.05 4.2762e-14
3360.78 4.4134e-14
3368.53 4.3903e-14
3376.3 4.0291e-14
3384.08 4.1489e-14
3391.88 4.4325e-14
3399.7 4.5432e-14
3407.54 4.2764e-14
3415.39 4.3131e-14
3423.26 4.5762e-14
3431.16 4.5312e-14
3439.06 4.4867e-14
3446.99 4.0517e-14
3454.94 4.3486e-14
3462.9 4.0463e-14
3470.89 4.2244e-14
3478.89 3.9398e-14
3486.91 4.1227e-14
3494.95 4.0727e-14
3503.0 4.3111e-14
3511.08 4.2295e-14
3519.17 4.2364e-14
3527.28 3.9783e-14
3535.42 4.2599e-14
3543.56 4.4576e-14
3551.73 4.434e-14
3559.92 4.3201e-14
3568.13 4.0382e-14
3576.35 3.9254e-14
3584.6 3.6947e-14
3592.86 3.7869e-14
3601.14 4.2951e-14
3606.42 3.9515e-14
3609.13 4.383e-14
3611.83 3.9278e-14
3614.53 3.9738e-14
3617.23 3.2097e-14
3619.94 3.8302e-14
3622.64 4.4704e-14
3625.34 4.2834e-14
3628.05 4.7114e-14
3630.75 4.7185e-14
3633.45 4.6743e-14
3636.15 3.8172e-14
3638.86 4.0942e-14
3641.56 4.1322e-14
3644.26 4.4171e-14
3646.96 3.9917e-14
3649.67 3.7729e-14
3652.37 4.2968e-14
3655.07 3.634e-14
3657.77 4.6493e-14
3660.48 4.4471e-14
3663.18 4.637e-14
3665.88 3.9619e-14
3668.58 4.4737e-14
3671.29 4.2456e-14
3673.99 4.504e-14
3676.69 4.4132e-14
3679.39 4.0075e-14
3682.1 3.5167e-14
3684.8 3.925e-14
3687.5 4.2273e-14
3690.2 4.0192e-14
3692.91 4.4236e-14
3695.61 4.4254e-14
3698.31 4.3365e-14
3701.01 4.4968e-14
3703.72 4.1919e-14
3706.42 4.7141e-14
3709.12 4.5058e-14
3711.82 4.5163e-14
3714.53 5.0661e-14
3717.23 6.779e-14
3719.93 9.3363e-14
3722.63 1.401e-13
3725.34 1.8394e-13
3728.04 1.9589e-13
3730.74 1.6414e-13
3733.44 1.1231e-13
3736.15 7.16e-14
3738.85 5.6489e-14
3741.55 5.0928e-14
3744.25 4.6408e-14
3746.96 4.5547e-14
3749.66 4.505e-14
3752.36 4.4431e-14
3755.06 5.0095e-14
3757.77 6.3889e-14
3760.47 7.2418e-14
3763.17 7.9089e-14
3765.88 7.7346e-14
3768.58 6.6716e-14
3771.28 5.3088e-14
3773.98 4.8667e-14
3776.69 5.2352e-14
3779.39 5.5926e-14
3782.09 5.4523e-14
3784.79 5.6533e-14
3787.5 5.4353e-14
3790.2 5.0795e-14
3792.9 4.9523e-14
3795.6 4.5894e-14
3798.31 4.531e-14
3801.01 4.8938e-14
3803.71 5.02e-14
3806.41 5.2565e-14
3809.12 5.4819e-14
3811.82 5.6842e-14
3814.52 5.9102e-14
3817.22 5.4679e-14
3819.93 5.3991e-14
3822.63 5.1399e-14
3825.33 5.1665e-14
3828.03 4.7263e-14
3830.74 4.5627e-14
3833.44 4.2285e-14
3836.14 4.275e-14
3838.84 4.3651e-14
3841.55 4.7133e-14
3844.25 4.9691e-14
3846.95 5.2917e-14
3849.65 5.9039e-14
3852.36 5.9294e-14
3855.06 6.0085e-14
3857.76 6.2886e-14
3860.46 6.351e-14
3863.17 6.2669e-14
3865.87 6.5971e-14
3868.57 6.5945e-14
3871.27 6.4538e-14
3873.98 6.2382e-14
3876.68 5.9862e-14
3879.38 5.5429e-14
3882.08 5.4176e-14
3884.79 5.4546e-14
3887.49 5.4447e-14
3890.19 5.2085e-14
3892.89 5.2918e-14
3895.6 5.3394e-14
3898.3 5.8121e-14
3901.0 5.8061e-14
3903.7 6.1153e-14
3906.41 6.3668e-14
3909.11 6.6429e-14
3911.81 6.7225e-14
3914.52 6.7298e-14
3917.22 6.5438e-14
3919.92 6.354e-14
3922.62 6.3446e-14
3925.33 6.198e-14
3928.03 5.6877e-14
3930.73 5.2896e-14
3933.43 5.1042e-14
3936.14 5.1937e-14
3938.84 5.4634e-14
3941.54 5.8747e-14
3944.24 6.2853e-14
3946.95 6.1719e-14
3949.65 6.3072e-14
3952.35 6.7002e-14
3955.05 6.5968e-14
3957.76 5.9995e-14
3960.46 5.8569e-14
3963.16 5.5529e-14
3965.86 5.2249e-14
3968.57 4.9443e-14
3971.27 4.776e-14
3973.97 4.9364e-14
3976.67 5.4148e-14
3979.38 5.6796e-14
3982.08 6.4686e-14
3984.78 6.8393e-14
3987.48 7.0876e-14
3990.19 7.0871e-14
3992.89 7.1718e-14
3995.59 7.2612e-14
3998.29 7.3336e-14
4001.0 7.2735e-14
4003.7 7.5354e-14
4006.4 7.1956e-14
4009.1 7.2329e-14
4011.81 7.4118e-14
4014.51 7.5076e-14
4017.21 7.3986e-14
4019.91 7.509e-14
4022.62 7.62e-14
4025.32 7.3124e-14
4028.02 7.5792e-14
4030.72 7.415e-14
4033.43 7.4632e-14
4036.13 7.5818e-14
4038.83 7.4473e-14
4041.53 7.2484e-14
4044.24 7.347e-14
4046.94 7.1917e-14
4049.64 7.8577e-14
4052.34 7.669e-14
4055.05 7.6686e-14
4057.75 7.6954e-14
4060.45 7.7982e-14
4063.16 7.5753e-14
4065.86 8.057e-14
4068.56 7.9573e-14
4071.26 7.94e-14
4073.97 7.569e-14
4076.67 7.6476e-14
4079.37 7.1808e-14
4082.07 7.3708e-14
4084.78 7.1827e-14
4087.48 7.2638e-14
4090.18 6.8473e-14
4092.88 6.6975e-14
4095.59 6.4409e-14
4098.29 6.4504e-14
4100.99 6.2306e-14
4103.69 6.3284e-14
4106.4 6.4578e-14
4109.1 6.2217e-14
4111.8 6.2859e-14
4114.5 6.8883e-14
4117.21 6.7634e-14
4119.91 7.0759e-14
4122.61 6.8962e-14
4125.31 7.1787e-14
4128.02 7.6338e-14
4130.72 7.1584e-14
4133.42 7.1481e-14
4136.12 7.0336e-14
4138.83 7.4442e-14
4141.53 7.0722e-14
4144.23 6.9048e-14
4146.93 7.1322e-14
4149.64 6.7636e-14
4152.34 6.6827e-14
4155.04 7.0363e-14
4157.74 6.8332e-14
4160.45 6.9037e-14
4163.15 6.9229e-14
4165.85 7.0724e-14
4168.55 6.7048e-14
4171.26 6.6876e-14
4173.96 6.7093e-14
4176.66 6.9871e-14
4179.36 6.9012e-14
4182.07 6.8349e-14
4184.77 7.1011e-14
4187.47 6.8735e-14
4190.17 6.9397e-14
4192.88 6.6186e-14
4195.58 6.6515e-14
4198.28 6.7175e-14
4200.98 6.9768e-14
4203.69 6.7988e-14
4206.39 7.1472e-14
4209.09 7.0506e-14
4211.8 6.991e-14
4214.5 7.1709e-14
4217.2 7.0996e-14
4219.9 7.0297e-14
4222.61 6.7765e-14
4225.31 6.7365e-14
4228.01 6.8775e-14
4230.71 6.8548e-14
4233.42 6.9728e-14
4236.12 7.0799e-14
4238.82 7.24e-14
4241.52 7.1317e-14
4244.23 7.2434e-14
4246.93 7.2671e-14
4249.63 7.2311e-14
4252.33 7.0045e-14
4255.04 7.0332e-14
4257.74 7.1346e-14
4260.44 7.1394e-14
4263.14 7.3005e-14
4265.85 7.2392e-14
4268.55 7.2293e-14
4271.25 7.2666e-14
4273.95 7.1085e-14
4276.66 7.0776e-14
4279.36 7.0512e-14
4282.06 7.1101e-14
4284.76 7.2919e-14
4287.47 7.0467e-14
4290.17 6.8901e-14
4292.87 6.7244e-14
4295.57 6.5473e-14
4298.28 6.4264e-14
4300.98 6.213e-14
4303.68 6.1852e-14
4306.38 6.3453e-14
4309.09 6.4939e-14
4311.79 6.5835e-14
4314.49 6.9284e-14
4317.19 7.1189e-14
4319.9 7.1107e-14
4322.6 7.233e-14
4325.3 7.1224e-14
4328.0 7.0839e-14
4330.71 7.1643e-14
4333.41 7.2991e-14
4336.11 7.5713e-14
4338.81 7.6426e-14
4341.52 7.5982e-14
4344.22 7.1977e-14
4346.92 6.957e-14
4349.62 7.1084e-14
4352.33 7.0605e-14
4355.03 7.2039e-14
4357.73 7.2965e-14
4360.44 7.4138e-14
4363.14 7.5175e-14
4365.84 7.5179e-14
4368.54 7.5699e-14
4371.25 7.6218e-14
4373.95 7.421e-14
4376.65 7.315e-14
4379.35 7.4369e-14
4382.06 7.4602e-14
4384.76 7.2625e-14
4387.46 7.0789e-14
4390.16 7.2158e-14
4392.87 7.2161e-14
4395.57 7.2804e-14
4398.27 7.3935e-14
4400.97 7.4452e-14
4403.68 7.3485e-14
4406.38 7.4483e-14
4409.08 7.6128e-14
4411.78 7.572e-14
4414.49 7.6974e-14
4417.19 7.6574e-14
4419.89 7.5992e-14
4422.59 7.6668e-14
4425.3 7.7304e-14
4428.0 7.7315e-14
4430.7 7.7079e-14
4433.4 7.645e-14
4436.11 7.5436e-14
4438.81 7.6356e-14
4441.51 7.7037e-14
4444.21 7.8308e-14
4446.92 7.9674e-14
4449.62 7.786e-14
4452.32 7.8485e-14
4455.02 7.7555e-14
4457.73 7.3655e-14
4460.43 7.4524e-14
4463.13 7.5973e-14
4465.83 7.4673e-14
4468.54 7.6204e-14
4471.24 7.9878e-14
4473.94 8.0915e-14
4476.64 7.9891e-14
4479.35 7.9086e-14
4482.05 7.8847e-14
4484.75 8.0343e-14
4487.45 8.0577e-14
4490.16 8.0768e-14
4492.86 8.0967e-14
4495.56 8.1138e-14
4498.26 7.9635e-14
4500.97 7.9148e-14
4503.67 8.0303e-14
4506.37 8.3186e-14
4509.08 8.1777e-14
4511.78 7.8891e-14
4514.48 7.8926e-14
4517.18 8.0979e-14
4519.89 7.87e-14
4522.59 7.8725e-14
4525.29 7.7229e-14
4527.99 7.4631e-14
4530.7 7.7831e-14
4533.4 7.5161e-14
4536.1 7.69e-14
4538.8 7.7561e-14
4541.51 7.7686e-14
4544.21 7.8983e-14
4546.91 7.7558e-14
4549.61 7.632e-14
4552.32 7.8719e-14
4555.02 7.97e-14
4557.72 8.0474e-14
4560.42 8.1897e-14
4563.13 8.0523e-14
4565.83 8.2118e-14
4568.53 8.281e-14
4571.23 8.3491e-14
4573.94 8.2711e-14
4576.64 8.1219e-14
4579.34 8.0862e-14
4582.04 7.8293e-14
4584.75 7.9253e-14
4587.45 7.8966e-14
4590.15 7.8956e-14
4592.85 7.8984e-14
4595.56 7.9618e-14
4598.26 8.1235e-14
4600.96 8.0834e-14
4603.66 8.1399e-14
4606.37 8.025e-14
4609.07 8.2385e-14
4611.77 8.2059e-14
4614.47 8.156e-14
4617.18 8.284e-14
4619.88 8.2383e-14
4622.58 8.2082e-14
4625.28 8.0925e-14
4627.99 8.3074e-14
4630.69 8.199e-14
4633.39 8.1635e-14
4636.09 8.0157e-14
4638.8 7.9658e-14
4641.5 7.7916e-14
4644.2 7.9989e-14
4646.9 8.2382e-14
4649.61 7.9864e-14
4652.31 7.8958e-14
4655.01 8.1571e-14
4657.72 8.1553e-14
4660.42 8.2084e-14
4663.12 7.8297e-14
4665.82 7.7966e-14
4668.53 7.677e-14
4671.23 7.8191e-14
4673.93 7.7914e-14
4676.63 7.9118e-14
4679.34 8.0411e-14
4682.04 8.1227e-14
4684.74 8.1725e-14
4687.44 8.3074e-14
4690.15 7.8896e-14
4692.85 7.9104e-14
4695.55 7.9983e-14
4698.25 7.9115e-14
4700.96 7.697e-14
4703.66 7.6502e-14
4706.36 7.6808e-14
4709.06 8.1063e-14
4711.77 7.7263e-14
4714.47 7.9902e-14
4717.17 7.912e-14
4719.87 7.8662e-14
4722.58 8.1976e-14
4725.28 7.9971e-14
4727.98 7.8635e-14
4730.68 7.9994e-14
4733.39 7.8639e-14
4736.09 7.8876e-14
4738.79 7.9207e-14
4741.49 7.9782e-14
4744.2 8.077e-14
4746.9 8.1606e-14
4749.6 8.172e-14
4752.3 8.2987e-14
4755.01 7.9464e-14
4757.71 7.828e-14
4760.41 8.0338e-14
4763.11 7.7251e-14
4765.82 7.7616e-14
4768.52 7.998e-14
4771.22 7.8863e-14
4773.92 7.863e-14
4776.63 8.0334e-14
4779.33 7.8289e-14
4782.03 8.0869e-14
4784.73 7.6716e-14
4787.44 7.7695e-14
4790.14 7.9519e-14
4792.84 7.9814e-14
4795.55 8.044e-14
4798.25 8.0553e-14
4800.95 7.9107e-14
4803.65 8.0245e-14
4806.36 8.0699e-14
4809.06 8.1394e-14
4811.76 7.8884e-14
4814.46 8.1031e-14
4817.17 7.802e-14
4819.87 7.9926e-14
4822.57 7.8768e-14
4825.27 8.0915e-14
4827.98 8.0282e-14
4830.68 7.9057e-14
4833.38 7.9725e-14
4836.08 7.926e-14
4838.79 7.815e-14
4841.49 7.916e-14
4844.19 7.8993e-14
4846.89 7.9043e-14
4849.6 7.6715e-14
4852.3 8.2263e-14
4855.0 8.8962e-14
4857.7 1.0011e-13
4860.41 1.0398e-13
4863.11 9.9738e-14
4865.81 8.9857e-14
4868.51 8.0725e-14
4871.22 7.4176e-14
4873.92 7.3581e-14
4876.62 7.6403e-14
4879.32 7.5993e-14
4882.03 7.5224e-14
4884.73 7.7338e-14
4887.43 7.4797e-14
4890.13 7.6619e-14
4892.84 7.7958e-14
4895.54 7.8801e-14
4898.24 7.982e-14
4900.94 7.9324e-14
4903.65 8.2796e-14
4906.35 8.529e-14
4909.05 8.9569e-14
4911.75 8.6544e-14
4914.46 8.0501e-14
4917.16 7.6995e-14
4919.86 7.4971e-14
4922.56 7.6861e-14
4925.27 7.7711e-14
4927.97 7.8235e-14
4930.67 7.921e-14
4933.37 7.9999e-14
4936.08 7.9968e-14
4938.78 8.1358e-14
4941.48 8.1142e-14
4944.19 8.471e-14
4946.89 8.6306e-14
4949.59 8.8686e-14
4952.29 9.0264e-14
4955.0 9.2124e-14
4957.7 9.3136e-14
4960.4 9.0686e-14
4963.1 8.8899e-14
4965.81 8.6484e-14
4968.51 8.1686e-14
4971.21 7.9977e-14
4973.91 8.1408e-14
4976.62 8.096e-14
4979.32 8.0658e-14
4982.02 8.4471e-14
4984.72 8.7155e-14
4987.43 8.8634e-14
4990.13 9.1323e-14
4992.83 9.6779e-14
4995.53 1.0071e-13
4998.24 1.0517e-13
5000.94 1.1698e-13
5003.64 1.2745e-13
5006.34 1.3075e-13
5009.05 1.2389e-13
5011.75 1.0867e-13
5014.45 9.4373e-14
5017.15 8.5243e-14
5019.86 7.9235e-14
5022.56 7.8392e-14
5025.26 7.462e-14
5027.96 7.6538e-14
5030.67 7.6763e-14
5033.37 7.7167e-14
5036.07 7.5343e-14
5038.77 7.4719e-14
5041.48 7.3625e-14
5044.18 7.2977e-14
5046.88 7.5597e-14
5049.58 8.0212e-14
5052.29 8.7787e-14
5054.99 9.832e-14
5057.69 9.6123e-14
5060.39 8.6117e-14
5063.1 7.8635e-14
5065.8 7.615e-14
5068.5 7.3981e-14
5071.2 7.3454e-14
5073.91 7.1766e-14
5076.61 7.1795e-14
5079.31 7.2894e-14
5082.01 7.0213e-14
5084.72 7.0273e-14
5087.42 7.2632e-14
5090.12 7.1644e-14
5092.83 7.2961e-14
5095.53 7.2212e-14
5098.23 7.1065e-14
5100.93 7.0578e-14
5103.64 7.0705e-14
5106.34 7.0513e-14
5109.04 7.1306e-14
5111.74 7.2507e-14
5114.45 7.3387e-14
5117.15 7.2918e-14
5119.85 7.1574e-14
5122.55 7.1395e-14
5125.26 7.0268e-14
5127.96 6.9811e-14
5130.66 6.9023e-14
5133.36 7.0849e-14
5136.07 7.1548e-14
5138.77 6.9604e-14
5141.47 6.9059e-14
5144.17 7.004e-14
5146.88 7.0378e-14
5149.58 6.9698e-14
5152.28 6.9191e-14
5154.98 6.9666e-14
5157.69 7.0783e-14
5160.39 6.9559e-14
5163.09 6.734e-14
5165.79 6.5207e-14
5168.5 6.4903e-14
5171.2 6.2583e-14
5173.9 6.2111e-14
5176.6 6.2093e-14
5179.31 6.2488e-14
5182.01 6.553e-14
5184.71 6.6328e-14
5187.41 6.7512e-14
5190.12 6.8534e-14
5192.82 7.4912e-14
5195.52 7.8403e-14
5198.22 8.2298e-14
5200.93 8.104e-14
5203.63 7.7625e-14
5206.33 7.2605e-14
5209.03 6.9556e-14
5211.74 7.0671e-14
5214.44 7.122e-14
5217.14 7.351e-14
5219.84 7.358e-14
5222.55 7.202e-14
5225.25 7.0964e-14
5227.95 7.2201e-14
5230.65 7.2482e-14
5233.36 7.3979e-14
5236.06 7.456e-14
5238.76 7.6533e-14
5241.47 7.5098e-14
5244.17 7.4093e-14
5246.87 7.4587e-14
5249.57 7.3343e-14
5252.28 7.3519e-14
5254.98 7.4918e-14
5257.68 7.3473e-14
5260.38 7.3321e-14
5263.09 7.0947e-14
5265.79 6.8974e-14
5268.49 6.9691e-14
5271.19 7.1153e-14
5273.9 7.1918e-14
5276.6 7.3455e-14
5279.3 7.3886e-14
5282.0 7.621e-14
5284.71 7.5437e-14
5287.41 7.5649e-14
5290.11 7.7141e-14
5292.81 7.5192e-14
5295.52 7.4553e-14
5298.22 7.514e-14
5300.92 7.6042e-14
5303.62 7.5063e-14
5306.33 7.6469e-14
5309.03 7.7781e-14
5311.73 7.8719e-14
5314.43 7.7052e-14
5317.14 7.5197e-14
5319.84 7.3858e-14
5322.54 7.4774e-14
5325.24 7.3084e-14
5327.95 7.3507e-14
5330.65 7.3386e-14
5333.35 7.3882e-14
5336.05 7.4865e-14
5338.76 7.4711e-14
5341.46 7.4805e-14
5344.16 7.3522e-14
5346.86 7.6424e-14
5349.57 7.5152e-14
5352.27 7.6515e-14
5354.97 7.8369e-14
5357.67 7.8336e-14
5360.38 7.7301e-14
5363.08 7.792e-14
5365.78 7.6338e-14
5368.48 7.2931e-14
5371.19 7.3379e-14
5373.89 7.3631e-14
5376.59 7.5515e-14
5379.29 7.5757e-14
5382.0 7.5357e-14
5384.7 7.3612e-14
5387.4 7.4734e-14
5390.11 7.2121e-14
5392.81 7.2876e-14
5395.51 7.3818e-14
5398.21 7.4266e-14
5400.92 7.2596e-14
5403.62 7.1618e-14
5406.32 7.2348e-14
5409.02 7.1933e-14
5411.73 7.2296e-14
5414.43 7.4289e-14
