# col1 col2
# An Atlas of Galaxy Spectral Energy Distributions from the Ultraviolet to the Mid-Infrared
# Brown et al. (2014)
# http://dx.doi.org/10.5072/03/529D3551F0117
# 
# Column 1 : Restframe Wavelength (Angstrom)
# Column 2 : Flux per unit wavelength (ergs/s/cm^2/Angstrom)
# Column 3 : Observed wavelength (Angstrom)
# Column 4 : Source (0 = model, 1 = Optical Spectrum, 2 = Akari, 3 = Spitzer IRS)
# 
100.09 4.5137e-22
101.95 6.6456e-22
104.09 8.9029e-22
106.02 1.2121e-21
107.99 1.677e-21
110.0 2.5854e-21
114.13 4.3404e-21
117.87 6.8004e-21
120.89 2.7831e-20
125.14 3.986e-20
126.88 4.6082e-20
128.05 5.0412e-20
131.04 6.1452e-20
131.94 7.5082e-20
134.09 8.4827e-20
136.9 1.1736e-19
140.08 1.3949e-19
143.02 4.3305e-19
147.02 1.2547e-18
151.14 1.4775e-18
155.02 1.756e-18
159.0 2.0823e-18
161.95 2.3471e-18
166.11 2.7831e-18
169.98 3.2102e-18
173.14 3.5854e-18
177.17 4.0976e-18
180.05 4.5137e-18
182.13 4.8254e-18
185.95 5.4517e-18
191.16 6.3319e-18
193.82 6.9588e-18
197.87 7.7363e-18
202.02 8.6404e-18
204.83 9.3656e-18
210.08 1.0128e-17
215.97 1.2233e-17
219.98 1.3475e-17
223.04 1.4241e-17
227.19 1.5651e-17
229.82 2.4862e-17
234.09 4.4008e-17
240.1 5.735e-17
246.26 5.7615e-17
251.99 6.4645e-17
257.27 5.735e-17
260.25 6.7536e-17
263.87 7.3035e-17
268.77 7.5951e-17
273.77 7.862e-17
278.86 8.1571e-17
284.05 8.4437e-17
289.99 8.3663e-17
296.07 8.8417e-17
300.88 9.0476e-17
307.89 9.5177e-17
317.97 1.0222e-16
327.63 1.0704e-16
338.37 1.1105e-16
347.85 1.1443e-16
356.77 1.1763e-16
365.92 1.2149e-16
375.31 1.2403e-16
384.94 1.2289e-16
394.81 1.2898e-16
404.94 1.3229e-16
414.37 1.3352e-16
422.07 1.3382e-16
429.92 1.3475e-16
440.95 1.3694e-16
451.22 1.3694e-16
459.61 1.3726e-16
470.31 1.3757e-16
480.16 1.3885e-16
490.22 1.3726e-16
500.48 1.3917e-16
506.28 1.3821e-16
512.14 1.4673e-16
520.46 1.4741e-16
530.14 1.464e-16
539.99 1.4339e-16
550.03 1.4707e-16
560.26 1.5189e-16
569.36 1.5615e-16
579.95 1.533e-16
589.37 1.5942e-16
600.33 1.5796e-16
610.08 1.505e-16
620.0 1.7043e-16
630.07 1.728e-16
640.31 1.7359e-16
650.71 1.7969e-16
658.25 1.8303e-16
664.34 1.8773e-16
675.13 1.8773e-16
684.52 1.8346e-16
695.65 2.0775e-16
705.32 2.0023e-16
716.78 2.2107e-16
726.76 2.2518e-16
735.17 2.299e-16
745.4 2.4634e-16
755.77 2.5617e-16
764.52 2.5736e-16
775.16 2.8024e-16
784.13 2.9277e-16
795.04 3.0306e-16
804.25 3.1299e-16
815.43 3.2102e-16
824.88 3.4477e-16
834.43 2.9009e-16
844.09 3.5689e-16
855.83 3.652e-16
865.74 3.8773e-16
875.77 4.126e-16
885.91 4.4518e-16
894.11 4.6616e-16
904.46 4.6295e-16
914.93 7.2033e-16
925.53 4.972e-15
934.09 1.0953e-14
944.91 2.1161e-14
955.85 3.0799e-14
964.69 3.3154e-14
975.86 4.8254e-15
984.89 2.5382e-14
994.01 2.8876e-14
1005.52 4.5765e-14
1014.82 4.5345e-14
1024.21 1.9885e-14
1036.07 2.9959e-14
1045.66 6.2307e-14
1055.33 6.1169e-14
1065.1 4.5976e-14
1074.95 5.6694e-14
1084.9 4.2809e-14
1094.94 6.0748e-14
1105.07 5.8416e-14
1115.29 5.5403e-14
1125.61 4.9038e-14
1136.03 6.5998e-14
1143.9 5.9365e-14
1154.49 6.4496e-14
1165.17 6.6609e-14
1175.95 4.3705e-14
1184.1 6.4794e-14
1195.06 4.1356e-14
1206.12 2.7895e-14
1214.47 2.0919e-14
1225.71 4.3907e-14
1234.21 7.0232e-14
1245.63 7.772e-14
1254.26 7.3204e-14
1265.87 6.1452e-14
1274.64 8.3471e-14
1286.44 8.862e-14
1295.35 6.6151e-14
1304.33 6.5093e-14
1316.4 8.6007e-14
1325.53 8.1947e-14
1334.72 7.0232e-14
1343.97 8.801e-14
1356.4 8.5022e-14
1365.8 7.4222e-14
1375.27 7.9165e-14
1384.81 8.0082e-14
1394.4 6.9268e-14
1404.07 7.2199e-14
1413.8 7.3372e-14
1423.6 7.6477e-14
1433.47 7.5602e-14
1443.41 8.0823e-14
1446.73 8.2705e-14
1453.41 7.9898e-14
1463.49 7.2533e-14
1473.63 7.27e-14
1483.85 7.4737e-14
1494.13 7.6654e-14
1504.49 7.1868e-14
1511.43 6.245e-14
1518.41 6.8161e-14
1525.42 6.5393e-14
1535.99 5.5659e-14
1546.64 6.3319e-14
1553.78 5.9365e-14
1564.55 6.0191e-14
1575.39 6.4645e-14
1586.31 6.8791e-14
1593.63 7.0394e-14
1604.68 6.9109e-14
1615.8 6.9748e-14
1623.26 6.5243e-14
1634.51 7.0232e-14
1645.84 7.1537e-14
1653.44 6.5243e-14
1664.9 7.2366e-14
1672.59 6.2883e-14
1676.44 7.27e-14
1684.18 7.6831e-14
1695.86 7.1537e-14
1703.68 6.8318e-14
1715.49 6.42e-14
1723.41 6.3905e-14
1735.36 6.895e-14
1743.37 6.7225e-14
1755.45 7.27e-14
1763.55 6.5544e-14
1775.78 6.7536e-14
1783.97 6.895e-14
1796.34 7.4737e-14
1804.63 7.4051e-14
1812.96 6.7536e-14
1825.53 6.9268e-14
1833.95 6.6151e-14
1846.67 6.0053e-14
1855.19 6.0191e-14
1863.75 6.245e-14
1876.67 6.8791e-14
1885.34 6.2738e-14
1894.04 6.0191e-14
1907.17 6.4052e-14
1915.97 6.131e-14
1924.81 6.033e-14
1933.7 6.202e-14
1947.1 6.5243e-14
1956.09 6.0888e-14
1965.12 6.7691e-14
1974.19 6.9588e-14
1983.3 6.5393e-14
1997.05 6.3465e-14
2006.27 6.5544e-14
2015.53 6.2738e-14
2024.83 6.6151e-14
2034.18 6.245e-14
2043.57 6.5393e-14
2053.0 6.2307e-14
2067.23 6.245e-14
2071.99 6.738e-14
2076.77 6.4348e-14
2086.36 6.7225e-14
2095.99 6.3319e-14
2105.66 6.3465e-14
2115.38 6.42e-14
2125.14 6.5243e-14
2134.95 5.9915e-14
2144.81 6.202e-14
2154.71 6.4645e-14
2164.65 6.2307e-14
2174.65 6.1735e-14
2184.68 6.0888e-14
2194.77 6.3905e-14
2204.9 6.202e-14
2215.08 5.8282e-14
2225.3 5.6433e-14
2235.57 6.1169e-14
2245.89 5.8148e-14
2256.26 5.5022e-14
2266.67 5.6433e-14
2277.13 5.8282e-14
2282.38 6.033e-14
2292.92 5.6544e-14
2303.5 5.6776e-14
2314.14 5.3572e-14
2324.82 4.071e-14
2335.55 4.8806e-14
2346.33 4.68e-14
2357.16 5.1762e-14
2362.59 4.644e-14
2373.5 4.8268e-14
2384.45 4.4098e-14
2395.46 4.7554e-14
2406.52 4.5389e-14
2417.62 4.685e-14
2423.2 5.0651e-14
2434.38 4.8456e-14
2445.62 5.1773e-14
2456.91 5.1034e-14
2462.57 5.0319e-14
2473.94 4.8138e-14
2485.36 4.9005e-14
2496.83 4.6238e-14
2502.58 5.2344e-14
2514.14 4.525e-14
2519.93 4.6397e-14
2525.74 4.4194e-14
2537.4 4.5406e-14
2543.25 4.4564e-14
2554.99 4.9061e-14
2566.78 4.7041e-14
2572.7 5.039e-14
2584.57 4.9441e-14
2596.5 4.8398e-14
2602.49 4.6313e-14
2614.5 4.544e-14
2626.57 4.8325e-14
2632.62 5.1291e-14
2644.77 5.6987e-14
2656.98 5.9774e-14
2663.11 5.1806e-14
2675.4 5.4841e-14
2687.75 5.5187e-14
2693.94 5.1488e-14
2706.38 5.4005e-14
2712.62 4.9922e-14
2725.14 4.9093e-14
2737.72 5.2329e-14
2744.03 4.3512e-14
2756.69 4.522e-14
2763.05 4.7774e-14
2775.8 5.0224e-14
2782.2 4.6001e-14
2795.04 3.5767e-14
2807.95 3.8744e-14
2814.42 4.9098e-14
2827.41 5.3429e-14
2833.93 5.1361e-14
2847.01 4.9016e-14
2853.57 4.5624e-14
2866.74 5.3322e-14
2873.35 5.4671e-14
2886.61 5.3637e-14
2893.27 5.424e-14
2913.32 6.0936e-14
2926.77 5.7621e-14
2947.06 5.6122e-14
2967.49 5.7767e-14
2988.05 5.7839e-14
3008.77 5.8717e-14
3029.62 5.8925e-14
3050.62 5.9133e-14
3071.77 6.0029e-14
3093.06 6.0379e-14
3107.34 6.1315e-14
3128.88 5.9853e-14
3150.57 5.9923e-14
3172.4 6.0829e-14
3187.05 5.6595e-14
3209.14 5.9468e-14
3231.39 5.518e-14
3246.3 6.144e-14
3268.8 6.5154e-14
3291.46 6.4185e-14
3306.65 6.3546e-14
3321.92 6.3204e-14
3329.57 6.6309e-14
3337.25 6.4476e-14
3344.94 6.3274e-14
3352.65 6.1101e-14
3360.38 6.4695e-14
3368.13 6.4076e-14
3375.89 5.7348e-14
3383.68 5.7723e-14
3391.47 6.4889e-14
3399.29 6.6679e-14
3407.13 6.2924e-14
3414.98 6.348e-14
3422.86 6.8148e-14
3430.75 6.5355e-14
3438.66 6.6542e-14
3446.58 5.5708e-14
3454.53 6.4675e-14
3462.49 5.8419e-14
3470.47 6.2427e-14
3478.47 5.6519e-14
3486.49 6.0675e-14
3494.53 5.9269e-14
3502.58 6.4512e-14
3510.66 6.3308e-14
3518.75 6.0992e-14
3526.86 5.9441e-14
3534.99 6.4551e-14
3543.14 6.8504e-14
3551.31 6.8003e-14
3559.5 6.6121e-14
3567.7 6.444e-14
3575.93 5.7938e-14
3584.17 5.3676e-14
3592.43 5.6181e-14
3600.71 6.6896e-14
3609.01 6.0563e-14
3616.32 5.0137e-14
3619.05 4.2718e-14
3621.79 4.8939e-14
3624.52 5.6779e-14
3627.25 6.8022e-14
3629.99 7.035e-14
3632.72 7.0614e-14
3635.45 6.7412e-14
3638.19 6.1592e-14
3640.92 5.4885e-14
3643.65 6.1566e-14
3646.39 6.8263e-14
3649.12 6.7895e-14
3651.86 5.9141e-14
3654.59 6.5956e-14
3657.32 6.7712e-14
3660.06 6.8836e-14
3662.79 7.1235e-14
3665.52 7.1063e-14
3668.26 7.6057e-14
3670.99 7.2171e-14
3673.72 5.3016e-14
3676.46 5.4635e-14
3679.19 6.8207e-14
3681.92 6.8789e-14
3684.66 6.6841e-14
3687.39 6.978e-14
3690.12 5.8132e-14
3692.86 6.5885e-14
3695.59 7.4859e-14
3698.33 7.1787e-14
3701.06 6.4619e-14
3703.79 7.2379e-14
3706.53 8.3166e-14
3709.26 6.698e-14
3711.99 7.3484e-14
3714.73 7.5285e-14
3717.46 7.5282e-14
3720.19 7.5903e-14
3722.93 8.707e-14
3725.66 9.7102e-14
3728.39 1.1882e-13
3731.13 1.5457e-13
3733.86 1.7423e-13
3736.59 1.4774e-13
3739.33 9.9356e-14
3742.06 6.689e-14
3744.8 6.6531e-14
3747.53 7.2154e-14
3750.26 6.6893e-14
3753.0 7.3522e-14
3755.73 6.7176e-14
3758.46 6.5565e-14
3761.2 7.103e-14
3763.93 8.0925e-14
3766.66 8.5803e-14
3769.4 8.2599e-14
3772.13 8.2011e-14
3774.86 7.9101e-14
3777.6 7.45e-14
3780.33 7.7758e-14
3783.06 9.0944e-14
3785.8 9.0787e-14
3788.53 1.0017e-13
3791.26 9.7598e-14
3794.0 8.6807e-14
3796.73 8.613e-14
3799.47 7.5761e-14
3802.2 7.0873e-14
3804.93 7.8196e-14
3807.67 8.4094e-14
3810.4 9.285e-14
3813.13 9.383e-14
3815.87 9.4007e-14
3818.6 8.9493e-14
3821.33 9.4257e-14
3824.07 8.7291e-14
3826.8 8.4043e-14
3829.53 7.7155e-14
3832.27 6.9675e-14
3835.0 6.3441e-14
3837.73 6.2149e-14
3840.47 6.45e-14
3843.2 6.4507e-14
3845.94 7.573e-14
3848.67 8.7653e-14
3851.4 9.1343e-14
3854.14 9.5498e-14
3856.87 9.7955e-14
3859.6 1.0004e-13
3862.34 9.2997e-14
3865.07 9.9994e-14
3867.8 1.0329e-13
3870.54 1.065e-13
3873.27 1.0621e-13
3876.0 9.5161e-14
3878.74 9.5944e-14
3881.47 9.3059e-14
3884.2 8.9332e-14
3886.94 8.266e-14
3889.67 8.6209e-14
3892.4 8.2279e-14
3895.14 8.1675e-14
3897.87 8.3339e-14
3900.61 8.7539e-14
3903.34 8.9364e-14
3906.07 9.9491e-14
3908.81 9.602e-14
3911.54 9.97e-14
3914.27 1.0684e-13
3917.01 1.062e-13
3919.74 1.135e-13
3922.47 1.0786e-13
3925.21 1.0265e-13
3927.94 9.3897e-14
3930.67 8.9951e-14
3933.41 7.7897e-14
3936.14 6.8973e-14
3938.87 6.5326e-14
3941.61 7.1155e-14
3944.34 8.4379e-14
3947.08 8.4825e-14
3949.81 9.4869e-14
3952.54 1.0169e-13
3955.28 1.0159e-13
3958.01 1.0496e-13
3960.74 1.0152e-13
3963.48 9.0439e-14
3966.21 7.9141e-14
3968.94 7.4159e-14
3971.68 6.5677e-14
3974.41 6.2883e-14
3977.14 6.3853e-14
3979.88 7.5465e-14
3982.61 9.2042e-14
3985.34 9.9799e-14
3988.08 1.0156e-13
3990.81 1.0504e-13
3993.54 1.0585e-13
3996.28 1.1534e-13
3999.01 1.1227e-13
4001.75 1.1284e-13
4004.48 1.1339e-13
4007.21 1.1303e-13
4009.95 1.1038e-13
4012.68 1.1363e-13
4015.41 1.1754e-13
4018.15 1.1941e-13
4020.88 1.2121e-13
4023.61 1.211e-13
4026.35 1.2372e-13
4029.08 1.2195e-13
4031.81 1.175e-13
4034.55 1.1558e-13
4037.28 1.2175e-13
4040.01 1.2454e-13
4042.75 1.3049e-13
4045.48 1.2817e-13
4048.22 1.2097e-13
4050.95 1.2364e-13
4053.68 1.2185e-13
4056.42 1.1977e-13
4059.15 1.2091e-13
4061.88 1.1502e-13
4064.62 1.1326e-13
4067.35 1.1712e-13
4070.08 1.1363e-13
4072.82 1.1887e-13
4075.55 1.1613e-13
4078.28 1.0655e-13
4081.02 1.134e-13
4083.75 1.1412e-13
4086.48 1.1952e-13
4089.22 1.2121e-13
4091.95 1.1796e-13
4094.68 1.1499e-13
4097.42 1.0996e-13
4100.15 9.7214e-14
4102.89 9.7266e-14
4105.62 1.0023e-13
4108.35 1.0135e-13
4111.09 9.7353e-14
4113.82 1.0515e-13
4116.55 1.1144e-13
4119.29 1.1171e-13
4122.02 1.1392e-13
4124.75 1.1556e-13
4127.49 1.1587e-13
4130.22 1.1655e-13
4132.95 1.1816e-13
4135.69 1.1486e-13
4138.42 1.1607e-13
4141.15 1.2245e-13
4143.89 1.2043e-13
4146.62 1.1975e-13
4149.36 1.1415e-13
4152.09 1.1345e-13
4154.82 1.1369e-13
4157.56 1.1854e-13
4160.29 1.1902e-13
4163.02 1.1879e-13
4165.76 1.2088e-13
4168.49 1.2025e-13
4171.22 1.1887e-13
4173.96 1.1597e-13
4176.69 1.1568e-13
4179.42 1.1755e-13
4182.16 1.1573e-13
4184.89 1.1378e-13
4187.62 1.177e-13
4190.36 1.1831e-13
4193.09 1.1566e-13
4195.82 1.2004e-13
4198.56 1.14e-13
4201.29 1.1607e-13
4204.03 1.1291e-13
4206.76 1.1616e-13
4209.49 1.195e-13
4212.23 1.2063e-13
4214.96 1.1935e-13
4217.69 1.2498e-13
4220.43 1.2385e-13
4223.16 1.2158e-13
4225.89 1.1537e-13
4228.63 1.1477e-13
4231.36 1.1152e-13
4234.09 1.1713e-13
4236.83 1.1303e-13
4239.56 1.193e-13
4242.29 1.2022e-13
4245.03 1.2261e-13
4247.76 1.1695e-13
4250.5 1.2622e-13
4253.23 1.2408e-13
4255.96 1.2191e-13
4258.7 1.1919e-13
4261.43 1.1731e-13
4264.16 1.2172e-13
4266.9 1.1779e-13
4269.63 1.2034e-13
4272.36 1.2066e-13
4275.1 1.1844e-13
4277.83 1.1644e-13
4280.56 1.185e-13
4283.3 1.179e-13
4286.03 1.1396e-13
4288.76 1.2041e-13
4291.5 1.2025e-13
4294.23 1.1311e-13
4296.96 1.1067e-13
4299.7 1.0485e-13
4302.43 1.0286e-13
4305.17 9.7922e-14
4307.9 9.7737e-14
4310.63 1.028e-13
4313.37 1.0321e-13
4316.1 1.0123e-13
4318.83 1.1204e-13
4321.57 1.2124e-13
4324.3 1.228e-13
4327.03 1.1586e-13
4329.77 1.1026e-13
4332.5 1.1405e-13
4335.23 1.1512e-13
4337.97 1.1233e-13
4340.7 1.1095e-13
4343.43 1.1294e-13
4346.17 1.1948e-13
4348.9 1.2019e-13
4351.64 1.1575e-13
4354.37 1.1642e-13
4357.1 1.2058e-13
4359.84 1.1723e-13
4362.57 1.225e-13
4365.3 1.259e-13
4368.04 1.2853e-13
4370.77 1.273e-13
4373.5 1.3086e-13
4376.24 1.2694e-13
4378.97 1.2122e-13
4381.7 1.1762e-13
4384.44 1.1976e-13
4387.17 1.1476e-13
4389.9 1.2086e-13
4392.64 1.1944e-13
4395.37 1.2034e-13
4398.1 1.2152e-13
4400.84 1.253e-13
4403.57 1.2166e-13
4406.31 1.2305e-13
4409.04 1.2338e-13
4411.77 1.2314e-13
4414.51 1.2124e-13
4417.24 1.2401e-13
4419.97 1.2212e-13
4422.71 1.2566e-13
4425.44 1.2547e-13
4428.17 1.2696e-13
4430.91 1.2849e-13
4433.64 1.2387e-13
4436.37 1.2569e-13
4439.11 1.2677e-13
4441.84 1.239e-13
4444.57 1.2708e-13
4447.31 1.288e-13
4450.04 1.297e-13
4452.78 1.3063e-13
4455.51 1.2823e-13
4458.24 1.2585e-13
4460.98 1.2284e-13
4463.71 1.2657e-13
4466.44 1.2365e-13
4469.18 1.2674e-13
4471.91 1.2941e-13
4474.64 1.3047e-13
4477.38 1.3438e-13
4480.11 1.36e-13
4482.84 1.3044e-13
4485.58 1.2812e-13
4488.31 1.2785e-13
4491.04 1.344e-13
4493.78 1.3272e-13
4496.51 1.3282e-13
4499.24 1.3075e-13
4501.98 1.3709e-13
4504.71 1.3639e-13
4507.45 1.4084e-13
4510.18 1.4057e-13
4512.91 1.3974e-13
4515.65 1.4336e-13
4518.38 1.4295e-13
4521.11 1.3844e-13
4523.85 1.381e-13
4526.58 1.3412e-13
4529.31 1.2935e-13
4532.05 1.2883e-13
4534.78 1.3173e-13
4537.51 1.3015e-13
4540.25 1.3195e-13
4542.98 1.3136e-13
4545.71 1.341e-13
4548.45 1.3426e-13
4551.18 1.3174e-13
4553.92 1.2987e-13
4556.65 1.2983e-13
4559.38 1.3006e-13
4562.12 1.3481e-13
4564.85 1.3654e-13
4567.58 1.3807e-13
4570.32 1.4045e-13
4573.05 1.3879e-13
4575.78 1.3736e-13
4578.52 1.3965e-13
4581.25 1.3821e-13
4583.98 1.3626e-13
4586.72 1.3301e-13
4589.45 1.3325e-13
4592.18 1.3551e-13
4594.92 1.3564e-13
4597.65 1.3412e-13
4600.38 1.3391e-13
4603.12 1.3213e-13
4605.85 1.3721e-13
4608.59 1.3468e-13
4611.32 1.3492e-13
4614.05 1.4022e-13
4616.79 1.4088e-13
4619.52 1.3814e-13
4622.25 1.3758e-13
4624.99 1.4059e-13
4627.72 1.4455e-13
4630.45 1.4261e-13
4633.19 1.3728e-13
4635.92 1.396e-13
4638.65 1.41e-13
4641.39 1.3571e-13
4644.12 1.3307e-13
4646.85 1.3578e-13
4649.59 1.3593e-13
4652.32 1.3547e-13
4655.06 1.3423e-13
4657.79 1.3581e-13
4660.52 1.3839e-13
4663.26 1.4014e-13
4665.99 1.4113e-13
4668.72 1.3685e-13
4671.46 1.335e-13
4674.19 1.326e-13
4676.92 1.3476e-13
4679.66 1.3594e-13
4682.39 1.3565e-13
4685.12 1.3446e-13
4687.86 1.3503e-13
4690.59 1.3821e-13
4693.32 1.3982e-13
4696.06 1.3649e-13
4698.79 1.3481e-13
4701.52 1.3348e-13
4704.26 1.3215e-13
4706.99 1.3087e-13
4709.73 1.3236e-13
4712.46 1.328e-13
4715.19 1.3225e-13
4717.93 1.3436e-13
4720.66 1.3603e-13
4723.39 1.404e-13
4726.13 1.384e-13
4728.86 1.3897e-13
4731.59 1.3787e-13
4734.33 1.3288e-13
4737.06 1.3062e-13
4739.79 1.3501e-13
4742.53 1.4139e-13
4745.26 1.4217e-13
4747.99 1.4002e-13
4750.73 1.4005e-13
4753.46 1.3961e-13
4756.2 1.4198e-13
4758.93 1.4144e-13
4761.66 1.3914e-13
4764.4 1.3753e-13
4767.13 1.3885e-13
4769.86 1.3575e-13
4772.6 1.381e-13
4775.33 1.4055e-13
4778.06 1.4154e-13
4780.8 1.4073e-13
4783.53 1.4147e-13
4786.26 1.3952e-13
4789.0 1.3839e-13
4791.73 1.387e-13
4794.46 1.414e-13
4797.2 1.4513e-13
4799.93 1.4351e-13
4802.67 1.4373e-13
4805.4 1.4457e-13
4808.13 1.4022e-13
4810.87 1.3792e-13
4813.6 1.3971e-13
4816.33 1.4271e-13
4819.07 1.453e-13
4821.8 1.4492e-13
4824.53 1.4153e-13
4827.27 1.4155e-13
4830.0 1.3858e-13
4832.73 1.3594e-13
4835.47 1.3792e-13
4838.2 1.3959e-13
4840.93 1.3948e-13
4843.67 1.3741e-13
4846.4 1.3897e-13
4849.13 1.3669e-13
4851.87 1.3567e-13
4854.6 1.3511e-13
4857.34 1.3179e-13
4860.07 1.3439e-13
4862.8 1.4231e-13
4865.54 1.5673e-13
4868.27 1.6001e-13
4871.0 1.4588e-13
4873.74 1.3538e-13
4876.47 1.2693e-13
4879.2 1.2924e-13
4881.94 1.307e-13
4884.67 1.3177e-13
4887.4 1.2999e-13
4890.14 1.2838e-13
4892.87 1.3024e-13
4895.6 1.3002e-13
4898.34 1.3372e-13
4901.07 1.3962e-13
4903.81 1.3959e-13
4906.54 1.3524e-13
4909.27 1.3853e-13
4912.01 1.3891e-13
4914.74 1.402e-13
4917.47 1.3611e-13
4920.21 1.3509e-13
4922.94 1.3521e-13
4925.67 1.2944e-13
4928.41 1.3029e-13
4931.14 1.3298e-13
4933.87 1.3817e-13
4936.61 1.4257e-13
4939.34 1.4025e-13
4942.07 1.3716e-13
4944.81 1.4284e-13
4947.54 1.4157e-13
4950.27 1.4208e-13
4953.01 1.4117e-13
4955.74 1.4206e-13
4958.48 1.4213e-13
4961.21 1.4015e-13
4963.94 1.4298e-13
4966.68 1.4201e-13
4969.41 1.4373e-13
4972.14 1.3805e-13
4974.88 1.3788e-13
4977.61 1.3901e-13
4980.34 1.3806e-13
4983.08 1.3839e-13
4985.81 1.3395e-13
4988.54 1.3115e-13
4991.28 1.355e-13
4994.01 1.38e-13
4996.74 1.3738e-13
4999.48 1.3965e-13
5002.21 1.3781e-13
5004.95 1.3729e-13
5007.68 1.4148e-13
5010.41 1.4747e-13
5013.15 1.4961e-13
5015.88 1.4535e-13
5018.61 1.3677e-13
5021.35 1.2846e-13
5024.08 1.2762e-13
5026.81 1.3153e-13
5029.55 1.309e-13
5032.28 1.316e-13
5035.01 1.3529e-13
5037.75 1.3642e-13
5040.48 1.3592e-13
5043.21 1.3125e-13
5045.95 1.337e-13
5048.68 1.3363e-13
5051.41 1.3702e-13
5054.15 1.3699e-13
5056.88 1.3665e-13
5059.62 1.3731e-13
5062.35 1.3801e-13
5065.08 1.3879e-13
5067.82 1.3941e-13
5070.55 1.3777e-13
5073.28 1.3693e-13
5076.02 1.3724e-13
5078.75 1.2992e-13
5081.48 1.302e-13
5084.22 1.325e-13
5086.95 1.3251e-13
5089.68 1.3568e-13
5092.42 1.3658e-13
5095.15 1.3832e-13
5097.88 1.3609e-13
5100.62 1.3715e-13
5103.35 1.3918e-13
5106.09 1.3474e-13
5108.82 1.3377e-13
5111.55 1.3333e-13
5114.29 1.3688e-13
5117.02 1.3761e-13
5119.75 1.3894e-13
5122.49 1.372e-13
5125.22 1.371e-13
5127.95 1.3523e-13
5130.69 1.3201e-13
5133.42 1.3179e-13
5136.15 1.306e-13
5138.89 1.3152e-13
5141.62 1.3334e-13
5144.35 1.3358e-13
5147.09 1.3122e-13
5149.82 1.2852e-13
5152.55 1.296e-13
5155.29 1.2952e-13
5158.02 1.3225e-13
5160.76 1.3568e-13
5163.49 1.3347e-13
5166.22 1.3114e-13
5168.96 1.2837e-13
5171.69 1.2136e-13
5174.42 1.1783e-13
5177.16 1.1661e-13
5179.89 1.1754e-13
5182.62 1.2233e-13
5185.36 1.2158e-13
5188.09 1.1866e-13
5190.82 1.2191e-13
5193.56 1.251e-13
5196.29 1.2863e-13
5199.02 1.3185e-13
5201.76 1.3308e-13
5204.49 1.3394e-13
5207.23 1.3551e-13
5209.96 1.3053e-13
5212.69 1.2619e-13
5215.43 1.2909e-13
5218.16 1.3114e-13
5220.89 1.3443e-13
5223.63 1.3631e-13
5226.36 1.375e-13
5229.09 1.3624e-13
5231.83 1.3406e-13
5234.56 1.3064e-13
5237.29 1.3283e-13
5240.03 1.3626e-13
5242.76 1.3859e-13
5245.49 1.4029e-13
5248.23 1.4416e-13
5250.96 1.443e-13
5253.69 1.3945e-13
5256.43 1.36e-13
5259.16 1.3816e-13
5261.9 1.4016e-13
5264.63 1.3891e-13
5267.36 1.3429e-13
5270.1 1.2935e-13
5272.83 1.27e-13
5275.56 1.2953e-13
5278.3 1.3471e-13
5281.03 1.3604e-13
5283.76 1.3611e-13
5286.5 1.3767e-13
5289.23 1.4094e-13
5291.96 1.4485e-13
5294.7 1.4889e-13
5297.43 1.4895e-13
5300.16 1.4208e-13
5302.9 1.4467e-13
5305.63 1.4479e-13
5308.37 1.4455e-13
5311.1 1.4657e-13
5313.83 1.4813e-13
5316.57 1.4696e-13
5319.3 1.472e-13
5322.03 1.4779e-13
5324.77 1.4591e-13
5327.5 1.4321e-13
5330.23 1.4111e-13
5332.97 1.4075e-13
5335.7 1.4024e-13
5338.43 1.4231e-13
5341.17 1.4399e-13
5343.9 1.4672e-13
5346.63 1.4589e-13
5349.37 1.4596e-13
5352.1 1.4563e-13
5354.83 1.4748e-13
5357.57 1.474e-13
5360.3 1.4958e-13
5363.04 1.5391e-13
5365.77 1.5209e-13
5368.5 1.4628e-13
5371.24 1.4261e-13
5373.97 1.4141e-13
5376.7 1.4481e-13
5379.44 1.4707e-13
5382.17 1.4484e-13
5384.9 1.4254e-13
5387.64 1.4329e-13
5390.37 1.4566e-13
5393.1 1.4693e-13
5395.84 1.4569e-13
5398.57 1.427e-13
5401.3 1.4065e-13
5404.04 1.3591e-13
5406.77 1.3641e-13
5409.51 1.3862e-13
5412.24 1.3629e-13
5414.97 1.3783e-13
5417.71 1.4149e-13
5420.44 1.4322e-13
5423.17 1.4631e-13
5425.91 1.4868e-13
5428.64 1.4898e-13
5431.37 1.4625e-13
5434.11 1.4084e-13
5436.84 1.41e-13
5439.57 1.4046e-13
5442.31 1.4176e-13
5445.04 1.4321e-13
