# col1 col2
# An Atlas of Galaxy Spectral Energy Distributions from the Ultraviolet to the Mid-Infrared
# Brown et al. (2014)
# http://dx.doi.org/10.5072/03/529D3551F0117
# 
# Column 1 : Restframe Wavelength (Angstrom)
# Column 2 : Flux per unit wavelength (ergs/s/cm^2/Angstrom)
# Column 3 : Observed wavelength (Angstrom)
# Column 4 : Source (0 = model, 1 = Optical Spectrum, 2 = Akari, 3 = Spitzer IRS)
# 
100.02 2.3226e-22
102.12 2.9784e-22
104.01 3.4832e-22
105.95 4.2362e-22
107.92 5.2117e-22
109.92 8.1093e-22
114.05 1.1376e-21
118.06 1.5031e-21
121.09 4.4155e-21
125.05 5.8746e-21
127.08 6.714e-21
127.97 7.2108e-21
130.95 8.6294e-21
131.85 9.8397e-21
134.0 1.1015e-20
137.12 1.4028e-20
139.99 1.6595e-20
142.92 2.8641e-20
146.92 4.8751e-20
151.04 5.929e-20
154.91 7.2108e-20
158.89 8.7093e-20
161.84 9.9996e-20
165.99 1.1967e-19
169.86 1.4157e-19
173.02 1.5995e-19
177.05 1.8706e-19
179.93 2.094e-19
182.01 2.2645e-19
185.82 2.612e-19
191.03 3.0973e-19
194.13 3.4354e-19
198.2 3.9082e-19
201.88 4.4359e-19
205.16 4.8527e-19
209.94 5.4573e-19
215.82 6.6371e-19
219.83 7.4128e-19
222.89 7.9612e-19
227.04 8.8508e-19
230.19 1.374e-18
233.93 2.4154e-18
239.93 3.2358e-18
246.09 3.3805e-18
251.82 3.793e-18
257.09 3.365e-18
260.07 4.0549e-18
264.3 4.4155e-18
269.21 4.6557e-18
274.22 4.8863e-18
279.31 5.1166e-18
283.85 5.3577e-18
289.8 5.4198e-18
295.86 5.8074e-18
300.67 5.8611e-18
307.68 6.2803e-18
317.76 6.9021e-18
328.17 7.3448e-18
338.14 7.7265e-18
347.61 8.1093e-18
357.35 8.4719e-18
365.67 8.8712e-18
375.05 9.1829e-18
384.67 9.2253e-18
395.45 9.7945e-18
404.66 1.0162e-17
414.09 1.0399e-17
421.79 1.0543e-17
429.63 1.0666e-17
440.65 1.099e-17
450.91 1.1142e-17
460.36 1.1246e-17
470.0 1.1402e-17
479.84 1.1614e-17
489.88 1.1614e-17
500.14 1.1857e-17
505.93 1.2133e-17
511.79 1.4125e-17
520.11 1.4223e-17
529.78 1.4321e-17
539.63 1.4092e-17
549.66 1.4996e-17
559.88 1.5995e-17
570.29 1.671e-17
579.55 1.6519e-17
590.33 1.7538e-17
599.92 1.7498e-17
609.67 1.7741e-17
619.57 1.9906e-17
629.64 2.0464e-17
639.87 2.094e-17
650.27 2.2028e-17
657.8 2.249e-17
665.42 2.3495e-17
674.67 2.4043e-17
685.64 2.3767e-17
695.17 2.7101e-17
704.84 2.6181e-17
716.3 2.9853e-17
726.26 3.076e-17
734.67 3.1767e-17
744.89 3.4039e-17
755.25 3.5562e-17
765.76 3.6474e-17
774.63 3.9535e-17
785.4 4.1781e-17
794.5 4.3549e-17
805.55 4.5392e-17
814.88 4.6987e-17
824.32 5.0464e-17
835.78 4.5288e-17
845.46 5.3701e-17
855.25 5.5716e-17
865.15 5.9427e-17
875.17 6.3093e-17
885.31 6.7295e-17
895.56 7.0792e-17
905.93 7.2274e-17
914.31 1.028e-16
924.9 5.8611e-16
935.61 1.2734e-15
944.26 2.4773e-15
955.2 3.4354e-15
964.04 4.1589e-15
975.2 8.9121e-16
984.22 4.2362e-15
995.62 4.2362e-15
1004.83 5.4825e-15
1014.13 5.0232e-15
1025.87 2.0511e-15
1035.36 3.8458e-15
1044.94 6.7761e-15
1054.61 6.7605e-15
1064.37 5.7542e-15
1074.22 6.6219e-15
1084.16 5.6102e-15
1094.19 6.8862e-15
1104.32 6.6678e-15
1114.53 6.5763e-15
1124.85 6.0671e-15
1135.25 7.1776e-15
1145.76 6.6371e-15
1153.7 6.934e-15
1164.38 7.1942e-15
1175.15 5.4573e-15
1186.02 6.934e-15
1194.24 5.2117e-15
1205.29 4.0085e-15
1213.65 2.1927e-15
1224.88 4.6879e-15
1236.21 6.7761e-15
1244.78 7.4814e-15
1256.3 7.3618e-15
1265.01 6.5612e-15
1273.78 7.9796e-15
1285.56 8.2791e-15
1294.47 7.1118e-15
1306.45 7.0466e-15
1315.51 8.26e-15
1324.63 7.998e-15
1333.81 7.3957e-15
1346.15 8.2981e-15
1355.48 8.128e-15
1364.88 7.5332e-15
1374.34 7.798e-15
1383.86 7.9064e-15
1393.46 7.0792e-15
1406.35 7.3279e-15
1416.1 7.5506e-15
1425.91 7.6205e-15
1435.8 7.6205e-15
1442.43 7.9247e-15
1445.75 7.998e-15
1455.77 7.8701e-15
1465.86 7.447e-15
1476.02 7.4128e-15
1486.26 7.4814e-15
1496.56 7.568e-15
1503.46 7.2943e-15
1510.4 6.7295e-15
1517.38 7.0629e-15
1524.38 6.918e-15
1534.95 6.2515e-15
1545.59 6.6371e-15
1556.3 6.3384e-15
1563.48 6.4711e-15
1574.32 6.8231e-15
1585.23 7.0304e-15
1596.22 7.1942e-15
1603.59 6.9981e-15
1614.71 6.9981e-15
1625.9 6.745e-15
1633.4 7.0466e-15
1644.72 7.1118e-15
1656.13 6.6986e-15
1663.77 7.1942e-15
1671.45 6.6371e-15
1675.3 7.2274e-15
1686.92 7.4128e-15
1694.7 7.0792e-15
1706.45 6.8704e-15
1714.33 6.6524e-15
1726.21 6.6066e-15
1734.18 6.934e-15
1746.2 6.7917e-15
1754.26 7.1282e-15
1766.42 6.6371e-15
1774.57 6.8231e-15
1786.87 6.9021e-15
1795.12 7.2108e-15
1803.4 7.1776e-15
1815.91 6.8074e-15
1824.29 6.8862e-15
1836.93 6.714e-15
1845.41 6.2659e-15
1853.93 6.3093e-15
1866.78 6.4711e-15
1875.4 6.8074e-15
1884.05 6.4118e-15
1897.11 6.2084e-15
1905.87 6.4861e-15
1914.67 6.3238e-15
1923.5 6.2084e-15
1936.84 6.2803e-15
1945.78 6.6066e-15
1954.76 6.2803e-15
1968.31 6.6986e-15
1977.39 6.8388e-15
1981.95 6.5612e-15
1995.69 6.4118e-15
2004.9 6.516e-15
2014.16 6.3971e-15
2023.45 6.5461e-15
2032.79 6.3677e-15
2046.88 6.531e-15
2056.33 6.2371e-15
2065.82 6.3093e-15
2075.36 6.6986e-15
2080.14 6.5763e-15
2084.94 6.745e-15
2094.56 6.4563e-15
2104.23 6.501e-15
2113.94 6.5612e-15
2123.7 6.6066e-15
2133.5 6.2659e-15
2143.35 6.4266e-15
2153.24 6.5763e-15
2163.18 6.3677e-15
2173.17 6.3384e-15
2183.2 6.353e-15
2193.28 6.5763e-15
2203.4 6.4118e-15
2213.57 6.1232e-15
2223.79 6.0392e-15
2234.05 6.4266e-15
2244.36 6.1941e-15
2254.72 5.9564e-15
2265.13 5.9977e-15
2275.59 6.1515e-15
2286.09 6.3384e-15
2296.64 6.0166e-15
2307.24 6.1227e-15
2312.56 5.9325e-15
2323.24 5.0446e-15
2333.96 5.5773e-15
2344.73 5.3213e-15
2355.56 5.8158e-15
2366.43 5.3483e-15
2377.35 5.5566e-15
2382.83 5.1064e-15
2393.83 5.3916e-15
2404.88 5.2641e-15
2415.98 5.3695e-15
2427.13 5.7748e-15
2432.73 5.5956e-15
2443.96 5.8811e-15
2455.24 5.8489e-15
2466.57 5.7768e-15
2472.26 5.5718e-15
2483.67 5.5414e-15
2495.13 5.2995e-15
2506.65 5.941e-15
2512.43 5.2381e-15
2518.22 5.2419e-15
2524.02 5.1262e-15
2535.67 5.2775e-15
2547.38 5.273e-15
2553.25 5.7197e-15
2565.04 5.5208e-15
2576.88 5.8296e-15
2582.82 5.7539e-15
2594.74 5.6571e-15
2606.71 5.4606e-15
2612.72 5.3649e-15
2624.78 5.665e-15
2636.9 6.0513e-15
2642.98 6.6553e-15
2655.18 7.0278e-15
2667.43 6.2874e-15
2673.58 6.5583e-15
2685.92 6.7057e-15
2692.11 6.2055e-15
2704.54 6.4928e-15
2717.02 6.0268e-15
2723.29 5.9077e-15
2735.86 6.2529e-15
2742.16 5.3754e-15
2754.82 5.6374e-15
2767.54 5.9806e-15
2773.92 6.2241e-15
2786.72 5.6461e-15
2793.14 4.5403e-15
2806.04 4.8278e-15
2812.5 6.1248e-15
2825.49 6.6339e-15
2832.0 6.4284e-15
2845.07 6.0923e-15
2858.2 5.5778e-15
2864.79 6.5434e-15
2878.02 6.8154e-15
2884.65 6.7117e-15
2897.97 6.8789e-15
2911.34 7.6596e-15
2931.52 7.3155e-15
2951.84 7.1497e-15
2972.3 7.3002e-15
2992.91 7.3517e-15
3006.72 7.4317e-15
3027.56 7.5188e-15
3048.55 7.6598e-15
3069.68 7.7855e-15
3090.96 7.7868e-15
3112.38 8.0248e-15
3126.75 7.8191e-15
3148.42 7.8387e-15
3170.25 8.0786e-15
3192.22 7.6108e-15
3206.96 7.983e-15
3229.19 7.5036e-15
3251.57 8.4407e-15
3266.58 8.9975e-15
3289.22 8.9379e-15
3312.02 8.8178e-15
3319.66 8.5849e-15
3327.31 8.7118e-15
3334.98 9.3215e-15
3342.67 8.6869e-15
3350.37 9.1251e-15
3358.1 9.1752e-15
3365.84 7.7445e-15
3373.6 7.7513e-15
3381.37 8.6647e-15
3389.17 9.081e-15
3396.98 8.5215e-15
3404.81 9.3518e-15
3412.66 8.6552e-15
3420.53 8.9879e-15
3428.41 9.121e-15
3436.32 9.108e-15
3444.24 7.7769e-15
3452.18 9.5103e-15
3460.14 8.8425e-15
3468.11 8.9323e-15
3476.11 8.6966e-15
3484.12 9.0727e-15
3492.15 8.8333e-15
3500.2 8.4627e-15
3508.27 9.2661e-15
3516.36 8.517e-15
3524.47 8.947e-15
3532.59 9.442e-15
3540.73 9.7153e-15
3548.9 1.0112e-14
3557.08 9.5332e-15
3565.28 9.9456e-15
3573.5 8.2989e-15
3581.73 8.6779e-15
3589.99 7.4612e-15
3598.27 9.445e-15
3606.56 9.0281e-15
3614.87 8.8919e-15
3619.08 9.7711e-15
3621.81 6.2863e-15
3624.55 9.249e-15
3627.29 8.7971e-15
3630.03 1.0764e-14
3632.77 1.1723e-14
3635.5 1.0555e-14
3638.24 1.0382e-14
3640.98 1.051e-14
3643.72 7.2657e-15
3646.46 1.0481e-14
3649.19 8.5442e-15
3651.93 7.4849e-15
3654.67 8.2051e-15
3657.41 9.6452e-15
3660.15 9.222e-15
3662.88 8.7768e-15
3665.62 9.9254e-15
3668.36 9.1061e-15
3671.1 8.652e-15
3673.84 1.0125e-14
3676.57 1.1672e-14
3679.31 9.5535e-15
3682.05 9.7542e-15
3684.79 1.1497e-14
3687.52 1.0545e-14
3690.26 9.4524e-15
3693.0 7.3559e-15
3695.74 8.697e-15
3698.48 1.094e-14
3701.21 9.2766e-15
3703.95 8.7313e-15
3706.69 8.3605e-15
3709.43 7.9455e-15
3712.17 1.0405e-14
3714.9 8.5032e-15
3717.64 9.646e-15
3720.38 1.0225e-14
3723.12 1.481e-14
3725.86 2.0394e-14
3728.59 2.4856e-14
3731.33 2.3047e-14
3734.07 1.4937e-14
3736.81 9.9699e-15
3739.55 1.0452e-14
3742.28 1.0245e-14
3745.02 7.4791e-15
3747.76 8.9689e-15
3750.5 9.799e-15
3753.24 8.9356e-15
3755.97 9.9182e-15
3758.71 1.0354e-14
3761.45 1.0572e-14
3764.19 9.7613e-15
3766.93 9.1316e-15
3769.66 8.2277e-15
3772.4 1.005e-14
3775.14 1.1544e-14
3777.88 1.1828e-14
3780.62 1.0939e-14
3783.35 1.1452e-14
3786.09 1.0959e-14
3788.83 1.0943e-14
3791.57 9.9324e-15
3794.31 9.232e-15
3797.04 9.3665e-15
3799.78 9.2927e-15
3802.52 9.9104e-15
3805.26 1.0586e-14
3807.99 1.0528e-14
3810.73 1.1854e-14
3813.47 1.1885e-14
3816.21 1.0559e-14
3818.95 1.0023e-14
3821.68 1.0553e-14
3824.42 1.0016e-14
3827.16 9.433e-15
3829.9 9.8251e-15
3832.64 9.4897e-15
3835.37 7.749e-15
3838.11 7.6122e-15
3840.85 8.4874e-15
3843.59 9.9915e-15
3846.33 9.974e-15
3849.06 1.0532e-14
3851.8 1.1637e-14
3854.54 1.1995e-14
3857.28 1.1598e-14
3860.02 1.2174e-14
3862.75 1.2851e-14
3865.49 1.2524e-14
3868.23 1.1612e-14
3870.97 1.2008e-14
3873.71 1.1529e-14
3876.44 1.0642e-14
3879.18 1.0677e-14
3881.92 1.059e-14
3884.66 1.0377e-14
3887.4 1.027e-14
3890.13 1.0137e-14
3892.87 9.2107e-15
3895.61 9.4739e-15
3898.35 1.0498e-14
3901.09 1.1306e-14
3903.82 1.193e-14
3906.56 1.1295e-14
3909.3 1.1298e-14
3912.04 1.225e-14
3914.77 1.2982e-14
3917.51 1.1747e-14
3920.25 1.162e-14
3922.99 1.1472e-14
3925.73 1.1106e-14
3928.46 1.0339e-14
3931.2 8.9076e-15
3933.94 7.5758e-15
3936.68 7.7272e-15
3939.42 8.5123e-15
3942.15 9.7924e-15
3944.89 1.0421e-14
3947.63 1.1275e-14
3950.37 1.2024e-14
3953.11 1.1941e-14
3955.84 1.104e-14
3958.58 1.1461e-14
3961.32 1.0467e-14
3964.06 9.1564e-15
3966.8 8.6261e-15
3969.53 8.3141e-15
3972.27 8.7807e-15
3975.01 9.6833e-15
3977.75 9.9489e-15
3980.49 1.0836e-14
3983.22 1.2064e-14
3985.96 1.2939e-14
3988.7 1.397e-14
3991.44 1.4646e-14
3994.18 1.3867e-14
3996.91 1.3188e-14
3999.65 1.3622e-14
4002.39 1.299e-14
4005.13 1.3265e-14
4007.87 1.3177e-14
4010.6 1.3389e-14
4013.34 1.3384e-14
4016.08 1.4478e-14
4018.82 1.4384e-14
4021.56 1.4441e-14
4024.29 1.3757e-14
4027.03 1.6094e-14
4029.77 1.4543e-14
4032.51 1.3852e-14
4035.24 1.38e-14
4037.98 1.4223e-14
4040.72 1.3714e-14
4043.46 1.4322e-14
4046.2 1.3797e-14
4048.93 1.4652e-14
4051.67 1.4983e-14
4054.41 1.4798e-14
4057.15 1.3899e-14
4059.89 1.4846e-14
4062.62 1.3129e-14
4065.36 1.3634e-14
4068.1 1.5256e-14
4070.84 1.489e-14
4073.58 1.352e-14
4076.31 1.2919e-14
4079.05 1.274e-14
4081.79 1.28e-14
4084.53 1.3878e-14
4087.27 1.5275e-14
4090.0 1.4256e-14
4092.74 1.3656e-14
4095.48 1.339e-14
4098.22 1.3394e-14
4100.96 1.2855e-14
4103.69 1.1788e-14
4106.43 1.2449e-14
4109.17 1.2926e-14
4111.91 1.4061e-14
4114.65 1.3249e-14
4117.38 1.3277e-14
4120.12 1.3971e-14
4122.86 1.4408e-14
4125.6 1.4591e-14
4128.34 1.5084e-14
4131.07 1.3972e-14
4133.81 1.4247e-14
4136.55 1.4304e-14
4139.29 1.498e-14
4142.03 1.4615e-14
4144.76 1.3768e-14
4147.5 1.4188e-14
4150.24 1.4466e-14
4152.98 1.3844e-14
4155.71 1.343e-14
4158.45 1.4618e-14
4161.19 1.4036e-14
4163.93 1.494e-14
4166.67 1.4151e-14
4169.4 1.4863e-14
4172.14 1.4063e-14
4174.88 1.372e-14
4177.62 1.31e-14
4180.36 1.314e-14
4183.09 1.3979e-14
4185.83 1.3902e-14
4188.57 1.3634e-14
4191.31 1.3524e-14
4194.05 1.3915e-14
4196.78 1.4008e-14
4199.52 1.3534e-14
4202.26 1.4394e-14
4205.0 1.3852e-14
4207.74 1.4161e-14
4210.47 1.4665e-14
4213.21 1.4602e-14
4215.95 1.4369e-14
4218.69 1.402e-14
4221.43 1.4154e-14
4224.16 1.3931e-14
4226.9 1.3991e-14
4229.64 1.3548e-14
4232.38 1.3935e-14
4235.12 1.3505e-14
4237.85 1.3647e-14
4240.59 1.383e-14
4243.33 1.3976e-14
4246.07 1.4238e-14
4248.81 1.4025e-14
4251.54 1.3273e-14
4254.28 1.3818e-14
4257.02 1.4027e-14
4259.76 1.4511e-14
4262.5 1.4536e-14
4265.23 1.4203e-14
4267.97 1.3908e-14
4270.71 1.4689e-14
4273.45 1.3913e-14
4276.18 1.4012e-14
4278.92 1.4553e-14
4281.66 1.4053e-14
4284.4 1.4193e-14
4287.14 1.3279e-14
4289.87 1.2622e-14
4292.61 1.322e-14
4295.35 1.3138e-14
4298.09 1.3112e-14
4300.83 1.2454e-14
4303.56 1.1562e-14
4306.3 1.1561e-14
4309.04 1.1929e-14
4311.78 1.2165e-14
4314.52 1.2677e-14
4317.25 1.3289e-14
4319.99 1.4133e-14
4322.73 1.4436e-14
4325.47 1.3603e-14
4328.21 1.3416e-14
4330.94 1.3419e-14
4333.68 1.3349e-14
4336.42 1.3998e-14
4339.16 1.5104e-14
4341.9 1.4763e-14
4344.63 1.4635e-14
4347.37 1.3912e-14
4350.11 1.3107e-14
4352.85 1.3747e-14
4355.59 1.4046e-14
4358.32 1.4694e-14
4361.06 1.4964e-14
4363.8 1.4487e-14
4366.54 1.548e-14
4369.28 1.4561e-14
4372.01 1.463e-14
4374.75 1.4802e-14
4377.49 1.4846e-14
4380.23 1.4354e-14
4382.96 1.3983e-14
4385.7 1.3515e-14
4388.44 1.3989e-14
4391.18 1.3711e-14
4393.92 1.4617e-14
4396.65 1.4505e-14
4399.39 1.3755e-14
4402.13 1.4877e-14
4404.87 1.4591e-14
4407.61 1.3115e-14
4410.34 1.4774e-14
4413.08 1.4811e-14
4415.82 1.5231e-14
4418.56 1.4925e-14
4421.3 1.5271e-14
4424.03 1.5024e-14
4426.77 1.5304e-14
4429.51 1.4942e-14
4432.25 1.4081e-14
4434.99 1.448e-14
4437.72 1.5266e-14
4440.46 1.5198e-14
4443.2 1.4836e-14
4445.94 1.5208e-14
4448.68 1.5602e-14
4451.41 1.5202e-14
4454.15 1.5335e-14
4456.89 1.5423e-14
4459.63 1.4659e-14
4462.37 1.4885e-14
4465.1 1.524e-14
4467.84 1.5713e-14
4470.58 1.5476e-14
4473.32 1.5944e-14
4476.06 1.5238e-14
4478.79 1.619e-14
4481.53 1.5826e-14
4484.27 1.5354e-14
4487.01 1.601e-14
4489.75 1.5757e-14
4492.48 1.5343e-14
4495.22 1.539e-14
4497.96 1.589e-14
4500.7 1.642e-14
4503.43 1.6115e-14
4506.17 1.6263e-14
4508.91 1.6328e-14
4511.65 1.6541e-14
4514.39 1.6887e-14
4517.12 1.6313e-14
4519.86 1.648e-14
4522.6 1.6081e-14
4525.34 1.6459e-14
4528.08 1.4803e-14
4530.81 1.4633e-14
4533.55 1.5137e-14
4536.29 1.5116e-14
4539.03 1.5526e-14
4541.77 1.58e-14
4544.5 1.6277e-14
4547.24 1.6301e-14
4549.98 1.4754e-14
4552.72 1.6151e-14
4555.46 1.5342e-14
4558.19 1.5881e-14
4560.93 1.6731e-14
4563.67 1.6124e-14
4566.41 1.601e-14
4569.15 1.5535e-14
4571.88 1.5929e-14
4574.62 1.5994e-14
4577.36 1.6588e-14
4580.1 1.6063e-14
4582.84 1.5906e-14
4585.57 1.5554e-14
4588.31 1.5563e-14
4591.05 1.5175e-14
4593.79 1.6057e-14
4596.53 1.5272e-14
4599.26 1.5877e-14
4602.0 1.6281e-14
4604.74 1.6091e-14
4607.48 1.6434e-14
4610.22 1.5947e-14
4612.95 1.6417e-14
4615.69 1.6622e-14
4618.43 1.6609e-14
4621.17 1.6412e-14
4623.9 1.6086e-14
4626.64 1.5975e-14
4629.38 1.6977e-14
4632.12 1.6525e-14
4634.86 1.657e-14
4637.59 1.6814e-14
4640.33 1.5724e-14
4643.07 1.5367e-14
4645.81 1.6312e-14
4648.55 1.5397e-14
4651.28 1.5968e-14
4654.02 1.6443e-14
4656.76 1.6336e-14
4659.5 1.6241e-14
4662.24 1.609e-14
4664.97 1.6001e-14
4667.71 1.6118e-14
4670.45 1.541e-14
4673.19 1.5535e-14
4675.93 1.6713e-14
4678.66 1.5957e-14
4681.4 1.6488e-14
4684.14 1.5339e-14
4686.88 1.5967e-14
4689.62 1.5836e-14
4692.35 1.5463e-14
4695.09 1.5778e-14
4697.83 1.5743e-14
4700.57 1.6046e-14
4703.31 1.5958e-14
4706.04 1.5874e-14
4708.78 1.5834e-14
4711.52 1.5816e-14
4714.26 1.6197e-14
4717.0 1.5296e-14
4719.73 1.6628e-14
4722.47 1.6781e-14
4725.21 1.5775e-14
4727.95 1.5256e-14
4730.68 1.5231e-14
4733.42 1.63e-14
4736.16 1.621e-14
4738.9 1.5688e-14
4741.64 1.5587e-14
4744.37 1.6266e-14
4747.11 1.631e-14
4749.85 1.5965e-14
4752.59 1.6889e-14
4755.33 1.5777e-14
4758.06 1.6409e-14
4760.8 1.6806e-14
4763.54 1.542e-14
4766.28 1.5358e-14
4769.02 1.5875e-14
4771.75 1.5888e-14
4774.49 1.6623e-14
4777.23 1.6722e-14
4779.97 1.7034e-14
4782.71 1.6446e-14
4785.44 1.5957e-14
4788.18 1.5864e-14
4790.92 1.5553e-14
4793.66 1.6136e-14
4796.4 1.6579e-14
4799.13 1.5913e-14
4801.87 1.6034e-14
4804.61 1.6229e-14
4807.35 1.6716e-14
4810.09 1.6445e-14
4812.82 1.6398e-14
4815.56 1.6747e-14
4818.3 1.6815e-14
4821.04 1.6711e-14
4823.78 1.6811e-14
4826.51 1.6444e-14
4829.25 1.7049e-14
4831.99 1.6685e-14
4834.73 1.6875e-14
4837.47 1.5875e-14
4840.2 1.6197e-14
4842.94 1.6608e-14
4845.68 1.6099e-14
4848.42 1.6112e-14
4851.15 1.5704e-14
4853.89 1.5617e-14
4856.63 1.6778e-14
4859.37 1.8805e-14
4862.11 2.2398e-14
4864.84 2.1737e-14
4867.58 1.8522e-14
4870.32 1.5403e-14
4873.06 1.5468e-14
4875.8 1.4191e-14
4878.53 1.4762e-14
4881.27 1.5191e-14
4884.01 1.4934e-14
4886.75 1.4842e-14
4889.49 1.5131e-14
4892.22 1.5475e-14
4894.96 1.6156e-14
4897.7 1.6627e-14
4900.44 1.6526e-14
4903.18 1.6523e-14
4905.91 1.6713e-14
4908.65 1.5607e-14
4911.39 1.553e-14
4914.13 1.5584e-14
4916.87 1.6212e-14
4919.6 1.5905e-14
4922.34 1.5416e-14
4925.08 1.4907e-14
4927.82 1.568e-14
4930.56 1.5455e-14
4933.29 1.6107e-14
4936.03 1.614e-14
4938.77 1.5808e-14
4941.51 1.5783e-14
4944.25 1.5854e-14
4946.98 1.6152e-14
4949.72 1.636e-14
4952.46 1.7509e-14
4955.2 1.762e-14
4957.94 1.7121e-14
4960.67 1.7564e-14
4963.41 1.707e-14
4966.15 1.66e-14
4968.89 1.6183e-14
4971.62 1.6514e-14
4974.36 1.6795e-14
4977.1 1.6145e-14
4979.84 1.5692e-14
4982.58 1.5634e-14
4985.31 1.5961e-14
4988.05 1.5327e-14
4990.79 1.5393e-14
4993.53 1.5847e-14
4996.27 1.5596e-14
4999.0 1.5889e-14
5001.74 1.6433e-14
5004.48 1.8173e-14
5007.22 1.9757e-14
5009.96 1.9715e-14
5012.69 1.7676e-14
5015.43 1.5832e-14
5018.17 1.5223e-14
5020.91 1.5029e-14
5023.65 1.5447e-14
5026.38 1.553e-14
5029.12 1.5785e-14
5031.86 1.568e-14
5034.6 1.5411e-14
5037.34 1.561e-14
5040.07 1.4967e-14
5042.81 1.5509e-14
5045.55 1.6268e-14
5048.29 1.5418e-14
5051.03 1.5618e-14
5053.76 1.6255e-14
5056.5 1.6047e-14
5059.24 1.6116e-14
5061.98 1.6354e-14
5064.72 1.6594e-14
5067.45 1.5968e-14
5070.19 1.557e-14
5072.93 1.5248e-14
5075.67 1.5836e-14
5078.41 1.5606e-14
5081.14 1.5704e-14
5083.88 1.5489e-14
5086.62 1.566e-14
5089.36 1.5804e-14
5092.09 1.598e-14
5094.83 1.6077e-14
5097.57 1.578e-14
5100.31 1.6019e-14
5103.05 1.5399e-14
5105.78 1.5687e-14
5108.52 1.5762e-14
5111.26 1.6072e-14
5114.0 1.5386e-14
5116.74 1.636e-14
5119.47 1.6311e-14
5122.21 1.5497e-14
5124.95 1.5828e-14
5127.69 1.5368e-14
5130.43 1.5345e-14
5133.16 1.5621e-14
5135.9 1.5733e-14
5138.64 1.535e-14
5141.38 1.5277e-14
5144.12 1.5383e-14
5146.85 1.5382e-14
5149.59 1.5543e-14
5152.33 1.5126e-14
5155.07 1.5164e-14
5157.81 1.5446e-14
5160.54 1.5576e-14
5163.28 1.5905e-14
5166.02 1.4801e-14
5168.76 1.3886e-14
5171.5 1.3129e-14
5174.23 1.3877e-14
5176.97 1.4118e-14
5179.71 1.5007e-14
5182.45 1.4419e-14
5185.19 1.3908e-14
5187.92 1.5098e-14
5190.66 1.5068e-14
5193.4 1.5068e-14
5196.14 1.5093e-14
5198.87 1.5755e-14
5201.61 1.6139e-14
5204.35 1.52e-14
5207.09 1.4706e-14
5209.83 1.4651e-14
5212.56 1.5577e-14
5215.3 1.5617e-14
5218.04 1.5649e-14
5220.78 1.6122e-14
5223.52 1.5576e-14
5226.25 1.5312e-14
5228.99 1.4937e-14
5231.73 1.5173e-14
5234.47 1.5317e-14
5237.21 1.6277e-14
5239.94 1.5657e-14
5242.68 1.6121e-14
5245.42 1.6128e-14
5248.16 1.5952e-14
5250.9 1.5075e-14
5253.63 1.5476e-14
5256.37 1.5388e-14
5259.11 1.5752e-14
5261.85 1.6e-14
5264.59 1.5122e-14
5267.32 1.4648e-14
5270.06 1.4142e-14
5272.8 1.4749e-14
5275.54 1.5349e-14
5278.28 1.5682e-14
5281.01 1.5926e-14
5283.75 1.5858e-14
5286.49 1.6264e-14
5289.23 1.6661e-14
5291.97 1.6907e-14
5294.7 1.6147e-14
5297.44 1.5941e-14
5300.18 1.63e-14
5302.92 1.6611e-14
5305.66 1.6711e-14
5308.39 1.7096e-14
5311.13 1.6868e-14
5313.87 1.7198e-14
5316.61 1.6646e-14
5319.34 1.6491e-14
5322.08 1.6279e-14
5324.82 1.5681e-14
5327.56 1.5979e-14
5330.3 1.5356e-14
5333.03 1.5913e-14
5335.77 1.6012e-14
5338.51 1.6275e-14
5341.25 1.6317e-14
5343.99 1.6229e-14
5346.72 1.6384e-14
5349.46 1.6079e-14
5352.2 1.6913e-14
5354.94 1.6975e-14
5357.68 1.681e-14
5360.41 1.6927e-14
5363.15 1.7504e-14
5365.89 1.6629e-14
5368.63 1.5856e-14
5371.37 1.5924e-14
5374.1 1.5911e-14
5376.84 1.6377e-14
5379.58 1.6521e-14
5382.32 1.7216e-14
5385.06 1.6904e-14
5387.79 1.6746e-14
5390.53 1.6736e-14
5393.27 1.6065e-14
5396.01 1.5663e-14
5398.75 1.5503e-14
5401.48 1.6309e-14
5404.22 1.5717e-14
5406.96 1.5859e-14
5409.7 1.6054e-14
5412.44 1.5784e-14
5415.17 1.6554e-14
5417.91 1.6681e-14
5420.65 1.6489e-14
5423.39 1.6352e-14
5426.13 1.6088e-14
5428.86 1.6725e-14
5431.6 1.5223e-14
5434.34 1.5741e-14
5437.08 1.5815e-14
5439.81 1.6361e-14
5442.55 1.6398e-14
5445.29 1.5981e-14
5448.03 1.5875e-14
